0.60223444,0.18092252,0.42263459,0.038022067,0.25063196,0.011435316,0.28469413,0.2615232,-0.051686379,1.2360902,0.20731765,-0.024075388,1.6115367,0.033275001,0.14372377,0.18703187,0.49518282,0.47481622,0.22093766,0.62096872,0.65613537,0.053065341,0.18024899,0.23570724,2.2288107,0.15085124,0.049350115,0.32441972,0.19545047,0.48483073,1.8760977,0.32989914
0.61558286,0.19684959,0.39566685,0.045386269,0.2844287,0.027975826,0.3068934,0.25001555,-0.012761417,1.1909403,0.19674567,0.043239618,1.4379638,0.038676906,0.1877561,0.19230089,0.45207071,0.53923987,0.20416081,0.59043129,0.64705266,0.069098289,0.19264162,0.25636374,2.0698923,0.17906687,0.061539802,0.32944995,0.18646012,0.4496479,1.6946723,0.3432376
0.6308145,0.21267639,0.3692821,0.052103196,0.31844827,0.045002213,0.32749267,0.24008539,0.024531974,1.1501379,0.18715279,0.10878137,1.2694953,0.043757684,0.23427236,0.20186028,0.41156612,0.60250096,0.18887641,0.55840036,0.64150112,0.085042076,0.20602717,0.27827064,1.9224568,0.20713039,0.074427644,0.33814504,0.1798364,0.41490626,1.5173988,0.35925788
0.64886203,0.22804027,0.34402394,0.057903903,0.35254474,0.062470252,0.34616503,0.23221202,0.059607184,1.1152724,0.1790714,0.17136385,1.109878,0.04847362,0.28275302,0.21626066,0.3748621,0.66308184,0.17548278,0.52567509,0.6399554,0.10068192,0.2203884,0.30122727,1.7899393,0.23434571,0.087909459,0.350753,0.1761424,0.38137955,1.3487371,0.37802483
0.66971826,0.2426863,0.31998858,0.062596635,0.3865425,0.080361491,0.36291698,0.22658098,0.092021211,1.0859985,0.1724673,0.22990222,0.96251791,0.0527888,0.33297073,0.2359609,0.34300303,0.72034923,0.16444063,0.49329502,0.64264544,0.1158693,0.23560668,0.32498453,1.6749491,0.26006381,0.1020827,0.36741409,0.17583736,0.34963215,1.1924128,0.3994824
0.6937879,0.25602864,0.29747839,0.066273321,0.42022577,0.09853636,0.37843326,0.2232355,0.12180206,1.0630069,0.16775029,0.28356185,0.82997356,0.056695401,0.38486672,0.26125952,0.3166372,0.77458212,0.15620153,0.46246119,0.64957206,0.1305021,0.25153264,0.34914974,1.5793683,0.28364929,0.11703291,0.38812699,0.17922985,0.32013107,1.0514314,0.42344524
0.72085543,0.26789433,0.27641612,0.068907743,0.45352007,0.11693604,0.39335741,0.22245394,0.14846644,1.0454456,0.16474304,0.3318546,0.7137233,0.060286684,0.43832866,0.29223467,0.29595428,0.82670149,0.15115504,0.43439,0.66015058,0.14460098,0.26795241,0.37343225,1.5015618,0.30447585,0.13280405,0.41264972,0.18652635,0.29331595,0.92808213,0.44919246
0.75072841,0.27778689,0.25710618,0.070668468,0.48612541,0.1354877,0.40850815,0.22390179,0.17230558,1.0329368,0.16373282,0.37476411,0.61435555,0.063689972,0.49298542,0.32873145,0.28073148,0.87720004,0.1497587,0.40981743,0.67418879,0.15813827,0.28472558,0.39764936,1.4405988,0.32237194,0.14945492,0.44050889,0.19792364,0.26953492,0.82372757,0.47610256
0.78284791,0.28599753,0.23983726,0.071778784,0.51796072,0.15408996,0.42441479,0.22789141,0.19322758,1.0243241,0.16450423,0.41275667,0.53169383,0.067035586,0.54833714,0.37039797,0.27044164,0.9261304,0.15210983,0.3893899,0.6918866,0.17102378,0.30186165,0.42158472,1.3956445,0.3376348,0.16699055,0.47104142,0.21363799,0.2492059,0.73883075,0.50359643
0.81639419,0.2926789,0.22520186,0.072393975,0.54858628,0.17267118,0.44161351,0.23416533,0.21132624,1.018491,0.16717721,0.44654342,0.46505423,0.07042645,0.60400519,0.4166687,0.26441627,0.97306156,0.15837204,0.37361689,0.71355032,0.18307287,0.31966908,0.4449712,1.3647141,0.35056118,0.18532119,0.50322998,0.23389022,0.23264721,0.67384917,0.53113696
0.85035359,0.29840097,0.21375968,0.07276804,0.57797557,0.19115805,0.4602585,0.24269511,0.22725518,1.0142086,0.17147085,0.47685965,0.41354328,0.073949129,0.65945525,0.46677317,0.26222727,1.0175104,0.16859541,0.36301153,0.73901746,0.19412868,0.33863277,0.46752457,1.3445013,0.36138307,0.20435437,0.53562775,0.2587251,0.22029834,0.62763912,0.55816534
0.88352079,0.30349435,0.20595306,0.073055332,0.60535235,0.20951005,0.4803143,0.25339406,0.24137728,1.010275,0.17736613,0.50437651,0.37596409,0.077680933,0.71380426,0.51953103,0.26392763,1.058828,0.18271844,0.35752827,0.76815838,0.20396286,0.35904771,0.48887139,1.3320794,0.37036859,0.22393281,0.56664099,0.28822499,0.21201839,0.59940356,0.58392693
0.91410405,0.30829136,0.20242616,0.073420091,0.63061635,0.22771417,0.50171468,0.2658718,0.2545921,1.0057091,0.18468589,0.52975939,0.35070374,0.081691995,0.76582895,0.57351144,0.26973894,1.0956788,0.20066167,0.35702685,0.80092066,0.21240466,0.38107222,0.50903729,1.3246449,0.37774722,0.2438432,0.59485657,0.32246233,0.20763133,0.58847603,0.60737006
0.94134924,0.31305029,0.20330042,0.073972712,0.65286151,0.24586468,0.52378883,0.2801176,0.26758001,1.0001347,0.19345249,0.55356411,0.33572376,0.086057001,0.8145972,0.62701783,0.27960154,1.1268663,0.22234951,0.36140402,0.83697813,0.21954184,0.40474576,0.52817281,1.319683,0.38376784,0.26402105,0.61912151,0.3615427,0.20686109,0.5942434,0.62757908
0.9638544,0.31799985,0.2093422,0.074814672,0.67242277,0.26412633,0.54596446,0.29551409,0.28109799,0.99334068,0.20363392,0.57615514,0.32868567,0.090861208,0.8596088,0.67849966,0.29310572,1.1523316,0.24742819,0.37039271,0.87589247,0.22573516,0.4300336,0.54658417,1.3159879,0.38856516,0.28447465,0.638198,0.40554263,0.20934291,0.61575751,0.64456688
0.98234458,0.32335232,0.22026689,0.076025781,0.68869545,0.28278274,0.56751807,0.31178682,0.29565361,0.9856911,0.21524668,0.59781318,0.32706138,0.096118367,0.90067212,0.72693144,0.30963827,1.1729971,0.2756705,0.38377748,0.91707496,0.2313899,0.45663732,0.56457945,1.3130474,0.39245579,0.30508873,0.65089816,0.4543969,0.21461866,0.6517425,0.65885184
0.99692366,0.32922431,0.23702644,0.077643187,0.70245074,0.30204271,0.58787351,0.32851475,0.31192507,0.97751026,0.22834377,0.61900384,0.32844238,0.10183147,0.93824975,0.77183916,0.32869075,1.1902484,0.30679079,0.40063378,0.9595136,0.23690448,0.48430618,0.58212034,1.3100765,0.39600221,0.32562737,0.65613997,0.50797374,0.22193135,0.70087445,0.67114278
1.0093166,0.33566459,0.25892614,0.079780795,0.71362668,0.32203092,0.60639187,0.34535597,0.33033367,0.9694788,0.24298137,0.6402274,0.33113481,0.10798496,0.97339781,0.81375296,0.35005928,1.2057417,0.34035013,0.42035493,1.001454,0.24254623,0.51272173,0.59897129,1.3060893,0.39991328,0.34565276,0.65318151,0.56572774,0.23076354,0.76227505,0.68216017
1.0208207,0.34268623,0.28710179,0.082450732,0.72318715,0.34302802,0.62286062,0.36196652,0.35118506,0.96236468,0.25941164,0.6618491,0.33427219,0.11460582,1.0074812,0.85415904,0.37360575,1.2204801,0.37573213,0.44241496,1.0411635,0.24839018,0.54159697,0.61500309,1.3006277,0.40485799,0.36460111,0.64225999,0.62677335,0.24079138,0.83423101,0.69222117
1.0329316,0.35028388,0.32046544,0.085669703,0.73138681,0.36503782,0.63750835,0.37817267,0.37503182,0.95689216,0.27770614,0.68393299,0.33764956,0.12170674,1.0417649,0.89493151,0.39904639,1.2354157,0.41213013,0.46630784,1.0771933,0.25439472,0.57063281,0.63051594,1.2936952,0.41125499,0.38208475,0.62443937,0.68997616,0.25188207,0.91536026,0.70128985
1.0466987,0.35847895,0.36001264,0.089529059,0.73891873,0.38815378,0.65047469,0.39369636,0.40159792,0.95405211,0.29817163,0.70629728,0.34136695,0.12936449,1.0767266,0.93778682,0.42593206,1.2517844,0.44869466,0.49136317,1.1084641,0.26043216,0.59956216,0.64602683,1.2856429,0.41934622,0.39777274,0.60189846,0.75388887,0.26395668,1.0045291,0.70905824
1.0628638,0.36723001,0.40460959,0.093977175,0.74625317,0.41276116,0.66233265,0.40828771,0.43115228,0.9541755,0.32076165,0.72900742,0.34557182,0.13770334,1.112143,0.98415539,0.45375206,1.2702446,0.48456407,0.51699536,1.1355411,0.26629977,0.62811422,0.66216592,1.276896,0.42947786,0.41148307,0.57746667,0.81698676,0.27692265,1.1005897,0.71538528
1.0814709,0.37667775,0.45480887,0.099070783,0.75395413,0.4386777,0.67364777,0.42166229,0.46355587,0.95759435,0.34587816,0.75293816,0.3503659,0.14691918,1.1473485,1.0352236,0.48183917,1.2907696,0.518955,0.54299969,1.1591143,0.2718136,0.65589052,0.6792237,1.2676292,0.44238289,0.42346393,0.55382177,0.87808957,0.29063882,1.2021991,0.72033435
1.1026393,0.38700072,0.50958344,0.10486185,0.76252957,0.4659344,0.685244,0.43362753,0.49853006,0.96422421,0.37335751,0.77907142,0.35587024,0.15707621,1.1815355,1.0916965,0.50971492,1.3127311,0.55149084,0.5692807,1.1797914,0.27687182,0.68240069,0.69740925,1.257641,0.45908945,0.43394196,0.53318483,0.93648218,0.30486591,1.3078593,0.7240686
1.1257886,0.39865147,0.56902975,0.11130156,0.77206957,0.49466736,0.69791353,0.44425617,0.53636568,0.9737145,0.40355948,0.80786309,0.36242084,0.16818342,1.2143714,1.1536778,0.53761605,1.335056,0.58198044,0.59571241,1.1979789,0.28139778,0.7069844,0.71692451,1.2465207,0.48025305,0.44313503,0.51742343,0.99172097,0.31911639,1.4162023,0.72676818
1.150619,0.41188566,0.63243117,0.11844026,0.78287309,0.52457826,0.71236259,0.45320525,0.5766869,0.98560393,0.43598358,0.83934622,0.37045565,0.18019203,1.2467106,1.2206377,0.56648642,1.3566898,0.61020813,0.62224762,1.2142713,0.28551665,0.72900139,0.73764733,1.2346505,0.50653901,0.45153148,0.5081174,1.0439909,0.33266506,1.5259155,0.72910591
1.1760533,0.42736042,0.69963992,0.12620835,0.79466789,0.55561959,0.72917236,0.46061022,0.61962529,0.99930232,0.47070735,0.87344702,0.38015665,0.19305214,1.2799882,1.2916086,0.59727804,1.3768481,0.63601494,0.64904277,1.2289185,0.28944711,0.74799382,0.75929274,1.2230241,0.53851174,0.45949305,0.50649103,1.0937692,0.34476543,1.6350989,0.73188153
1.2009398,0.44518526,0.76994678,0.13451985,0.80741742,0.58766622,0.74816482,0.46620579,0.66493815,1.0146354,0.50700314,0.91006492,0.39150393,0.20666448,1.3155935,1.3656118,0.63038307,1.3949187,0.65941995,0.67621109,1.24169,0.2934401,0.76377792,0.78152017,1.2128285,0.57642336,0.46730491,0.51337988,1.1413569,0.35474447,1.7413314,0.73613107
1.2241862,0.46633489,0.84256221,0.14332362,0.82073485,0.62030235,0.76921328,0.47008608,0.71207444,1.0311641,0.5447513,0.94893631,0.40449432,0.22090878,1.354309,1.4416687,0.66560931,1.4102972,0.68086286,0.70371616,1.252461,0.29800989,0.77654844,0.80387676,1.2048311,0.6203136,0.47517112,0.52922431,1.1866793,0.36206844,1.8414801,0.74373121
1.2443981,0.49090578,0.91635971,0.15238585,0.83458227,0.65320465,0.79173073,0.47269816,0.76056664,1.0487703,0.5832427,0.98979111,0.41900914,0.23564696,1.396261,1.5185613,0.70223876,1.4223377,0.70101545,0.73145794,1.2616031,0.30377458,0.78639154,0.82580489,1.1994688,0.66926568,0.48315722,0.55407551,1.2295765,0.3668023,1.931266,0.75599725
1.261074,0.52044166,0.99015201,0.16153468,0.84891467,0.68602377,0.81497524,0.47466016,0.80923125,1.0669107,0.62197619,1.0326031,0.4348721,0.25066496,1.440794,1.5950641,0.73907591,1.4306308,0.72068461,0.759573,1.2696276,0.31130362,0.79345338,0.84651724,1.1972524,0.72230554,0.49123174,0.5875698,1.2696424,0.36960193,2.0052875,0.77390222
1.273952,0.55472945,1.0625493,0.17059156,0.86419979,0.71865477,0.83792909,0.476765,0.85679775,1.0850502,0.66036897,1.0773368,0.4519715,0.26563522,1.4863586,1.6698945,0.77431951,1.4355733,0.74064578,0.78838957,1.2770486,0.32112985,0.79820801,0.86448024,1.1986201,0.77853543,0.49939345,0.62896146,1.3058629,0.37110994,2.0578121,0.79812738
1.2835259,0.59572973,1.1325016,0.17946367,0.88075829,0.75126502,0.85922954,0.47970285,0.90144491,1.1024215,0.69781117,1.1235058,0.47001834,0.28022176,1.5306551,1.7412726,0.80588045,1.4387155,0.76147716,0.8181686,1.2845544,0.33401822,0.80160668,0.87840409,1.2032648,0.83693706,0.50760814,0.677047,1.3367381,0.3718731,2.084481,0.82918831
1.2902728,0.64265828,1.1982215,0.18805129,0.89915443,0.78423692,0.87782858,0.48385451,0.9418872,1.1177778,0.73409264,1.1700937,0.48856208,0.29423288,1.5710789,1.8073548,0.83236749,1.4411678,0.78353981,0.8489724,1.2927639,0.35020083,0.80433087,0.88710654,1.2105415,0.89614671,0.51571401,0.72990358,1.361303,0.372409,2.0827389,0.86645297
1.2944392,0.69733054,1.2588492,0.19620304,0.91923792,0.81789714,0.89265288,0.48944277,0.97582642,1.1303377,0.76882876,1.215749,0.50685981,0.30772532,1.6051069,1.8671915,0.85345567,1.4439074,0.80675957,0.88055024,1.3022718,0.37002345,0.80704142,0.88940191,1.2195714,0.95450055,0.52339652,0.78504532,1.3787685,0.37315127,2.0546811,0.9093165
1.2961894,0.75862043,1.3117947,0.2037224,0.94152884,0.85263119,0.90437303,0.49669822,1.0026187,1.1394638,0.80210564,1.2593796,0.52398836,0.32102275,1.6305651,1.9209775,0.86926565,1.4481297,0.83058913,0.91248798,1.3138389,0.3938259,0.81033944,0.88546189,1.2293691,1.0105156,0.53036843,0.84042635,1.3888601,0.3743128,2.0046511,0.956856
1.2946799,0.82800098,1.3574748,0.21019917,0.96598173,0.88843643,0.91367765,0.50563607,1.0215512,1.1458278,0.83370754,1.3006489,0.5393725,0.33477439,1.6470939,1.9692241,0.88029506,1.4540621,0.85434918,0.94469599,1.3274052,0.42212724,0.81447579,0.87608155,1.23937,1.0623377,0.53637264,0.89484689,1.392738,0.37602949,1.9374813,1.0074975
1.2895867,0.90417585,1.3942857,0.21555237,0.99324451,0.92516631,0.92202283,0.51684455,1.0323063,1.1500902,0.86370645,1.339637,0.55318402,0.34971256,1.6542088,2.0121637,0.88717867,1.4611187,0.87805143,0.97742013,1.3422871,0.45466317,0.81931154,0.86206639,1.2497697,1.1079463,0.54104318,0.94739094,1.3934854,0.37842028,1.8577803,1.0594513
1.2790296,0.98780332,1.424449,0.21981241,1.0231677,0.96271946,0.93097602,0.53017097,1.0363258,1.152922,0.89190477,1.3761926,0.56613549,0.36651418,1.6510787,2.0488588,0.89035948,1.4680461,0.90216416,1.0112809,1.35737,0.49129268,0.82436135,0.84449993,1.2612163,1.1461603,0.54422126,0.99770844,1.3950437,0.38143199,1.7696652,1.1114356
1.2630227,1.0772456,1.4475732,0.22314267,1.0564956,1.0006475,0.94184073,0.54574372,1.0337167,1.154658,0.91845466,1.4099994,0.57926446,0.38597817,1.6368917,2.0775139,0.88994914,1.4729537,0.92704056,1.0468894,1.3717811,0.53176797,0.82862527,0.82455797,1.2750142,1.1766614,0.54588549,1.0461842,1.4007994,0.3847595,1.6764042,1.1624091
1.2398005,1.1720519,1.4653428,0.22597376,1.0928558,1.0385146,0.95554855,0.56325985,1.0260103,1.1552429,0.94348977,1.4409779,0.59347151,0.40838346,1.6112297,2.0955787,0.88571936,1.4744781,0.95274856,1.0845111,1.3856869,0.57560998,0.83077034,0.80292085,1.2922534,1.2010291,0.54604256,1.0936976,1.4128134,0.38811554,1.5801852,1.2113104
1.2100188,1.2702971,1.4778687,0.22858481,1.1326156,1.0755033,0.97251033,0.58221438,1.0140857,1.1546539,0.96731819,1.4694261,0.60921424,0.43378593,1.5742419,2.1009296,0.87796617,1.4711519,0.97911999,1.1239807,1.3996265,0.62171799,0.829887,0.77998686,1.3138473,1.2209943,0.54500898,1.1410857,1.4319181,0.39145261,1.4831921,1.2574524
1.1730969,1.3702229,1.4866379,0.23132385,1.1749665,1.1109284,0.99374453,0.60210922,0.99859499,1.1527399,0.99007228,1.4954758,0.6266094,0.46202891,1.5274812,2.0927928,0.86805673,1.4613555,1.0058829,1.1645193,1.4142767,0.66903277,0.82554003,0.75634906,1.340499,1.2386332,0.54327188,1.1889177,1.4580752,0.39507409,1.3881257,1.3004743
1.1302348,1.4693841,1.4927969,0.2344649,1.2197081,1.1438865,1.0193092,0.62224615,0.98107749,1.1496634,1.0120305,1.5187918,0.64548117,0.4928653,1.4727527,2.071482,0.85753106,1.4441212,1.0324493,1.2046359,1.429836,0.71630883,0.81770249,0.73249748,1.3722841,1.2559605,0.54130274,1.2373947,1.4904538,0.39929962,1.2971991,1.3401149
1.0820542,1.5646534,1.4983559,0.2383197,1.2659102,1.172858,1.0490285,0.64227352,0.96239598,1.1451703,1.0336718,1.538287,0.66579029,0.52565264,1.4130105,2.0385365,0.84732809,1.4193569,1.0578662,1.2422995,1.4456243,0.76219315,0.8065712,0.70878813,1.4082213,1.2743813,0.53955631,1.2863523,1.5281191,0.40446452,1.2122679,1.3763319
1.029581,1.6533199,1.50498,0.24300813,1.3131897,1.1973948,1.0831411,0.66214445,0.9435223,1.1394319,1.0555708,1.5529184,0.68764834,0.55961695,1.3520332,1.99631,0.83787413,1.3869819,1.0807007,1.2751991,1.4608245,0.80543119,0.79248597,0.68529192,1.4472343,1.2943394,0.53821701,1.3349158,1.5701879,0.41118639,1.1344927,1.4087941
0.97384885,1.7324008,1.5140087,0.24860744,1.3608466,1.2162475,1.1208982,0.68201073,0.92514171,1.1321049,1.0780368,1.5614309,0.71104185,0.59396247,1.2937869,1.9470614,0.82933157,1.3473392,1.0992345,1.3008373,1.4749791,0.84465896,0.77539988,0.66200213,1.4878603,1.3152857,0.53751619,1.3811389,1.6156116,0.42030853,1.0641665,1.4366312
0.91588625,1.8003622,1.5260911,0.25540811,1.4083343,1.2280526,1.1622208,0.70226137,0.90788849,1.1233543,1.1012249,1.5620689,0.73609625,0.62788503,1.2413731,1.8927055,0.82176028,1.3014707,1.111681,1.3164297,1.4881118,0.87828061,0.75548226,0.63911444,1.5280026,1.3360843,0.53801976,1.4226389,1.6624771,0.4329244,1.0007582,1.4576857
0.85693621,1.8563564,1.5416944,0.26346368,1.4550089,1.2331899,1.2068209,0.72314253,0.89176165,1.1127008,1.1251233,1.5535129,0.7629031,0.66065188,1.1965087,1.8351993,0.81513637,1.2508617,1.1155522,1.3195007,1.5006133,0.9046176,0.73340921,0.61705548,1.5657505,1.3549318,0.54009088,1.4577953,1.707665,0.44969809,0.94283,1.4700856
0.79796779,1.9001134,1.5605492,0.27306602,1.4997038,1.2306135,1.253835,0.74488197,0.87672999,1.0999435,1.149729,1.5356431,0.79090564,0.69171136,1.1601962,1.7757549,0.80965362,1.1971667,1.109022,1.3098935,1.5131794,0.92226999,0.71057103,0.59605645,1.5994555,1.36988,0.54400422,1.4861389,1.7477638,0.47121182,0.8885422,1.4723205
0.73960461,1.9318224,1.5825496,0.28452354,1.5413381,1.2197365,1.302972,0.76730201,0.86233764,1.084322,1.1746689,1.5090235,0.81897075,0.72045148,1.1327425,1.7158018,0.80596299,1.1425476,1.0909522,1.288517,1.5265131,0.92945085,0.68796595,0.5762582,1.6268799,1.3799371,0.55001601,1.5084692,1.7793393,0.49775631,0.83655328,1.4636525
0.68240073,1.9510719,1.6066361,0.29784535,1.5777382,1.201353,1.3537672,0.79029891,0.84797364,1.0652675,1.1994443,1.4748908,0.84538938,0.74605574,1.1138876,1.6572185,0.80487895,1.0894616,1.0618799,1.2572903,1.5406424,0.92399489,0.66632655,0.55789907,1.6471748,1.385843,0.55789018,1.5266033,1.7995055,0.52964464,0.78637743,1.443187
0.6263554,1.9586321,1.6318276,0.31339276,1.6078888,1.1749734,1.4056158,0.81366924,0.83270947,1.0420276,1.2238475,1.4346942,0.86764773,0.76722397,1.1033837,1.6017044,0.80742042,1.039717,1.0240316,1.2183559,1.5549879,0.90615316,0.64621056,0.54087891,1.660572,1.388904,0.56717552,1.5430374,1.806195,0.56684464,0.73778119,1.4125383
0.5719596,1.9537949,1.6568799,0.33122052,1.6291208,1.141678,1.4579156,0.83725094,0.81588582,1.0142471,1.2480866,1.3901638,0.88296127,0.78308695,1.1000002,1.5504146,0.81487404,0.9947049,0.98027924,1.1746291,1.568494,0.87800898,0.6276939,0.52517488,1.6678648,1.3906756,0.57735784,1.5595534,1.7982423,0.60899812,0.6905384,1.3732764
0.51942712,1.9376912,1.6808622,0.35124733,1.6408961,1.103057,1.5097687,0.86106536,0.79708832,0.98221313,1.2726494,1.3431211,0.88924909,0.79308791,1.1027723,1.5040305,0.82837568,0.9562656,0.93359743,1.1287393,1.5796544,0.84190009,0.61069877,0.51097869,1.6703587,1.3924151,0.58766511,1.5764631,1.7747989,0.65591432,0.64452509,1.3275141
0.46947527,1.9093973,1.7035971,0.37368855,1.6403008,1.0596942,1.5602532,0.88526764,0.77649222,0.94618358,1.2980035,1.2952894,0.88556996,0.79766433,1.1108758,1.4625755,0.84849021,0.92514358,0.88667575,1.082702,1.587532,0.79993307,0.59516132,0.49840777,1.670902,1.3947963,0.59725596,1.5925169,1.7355117,0.70743326,0.60001552,1.2777248
0.42250124,1.8703938,1.7242229,0.39813706,1.6277996,1.0131947,1.6076892,0.91017879,0.75463917,0.90719635,1.3239747,1.2480008,0.87253499,0.79771822,1.1232943,1.4250443,0.87489633,0.90216107,0.84122203,1.0380871,1.5914239,0.7548037,0.58106901,0.48738303,1.6717768,1.397429,0.60532891,1.6044663,1.6815027,0.76349191,0.55764512,1.2270523
0.37897108,1.8197087,1.7422901,0.42450656,1.6015805,0.96476614,1.6510735,0.93592356,0.73182275,0.86598648,1.3502167,1.2019683,0.85213886,0.79452882,1.1385692,1.3893632,0.90645465,0.88782607,0.798409,0.99651154,1.5907162,0.70859698,0.56840673,0.47776144,1.6747417,1.399069,0.61090312,1.6070817,1.6133473,0.82316064,0.51801101,1.177976
0.33921609,1.7599146,1.7563255,0.45263389,1.5634501,0.91532751,1.6892321,0.96244744,0.70845391,0.82367766,1.3761487,1.1578102,0.82640229,0.7888891,1.1548332,1.3535899,0.94197424,0.88251437,0.75887837,0.95908516,1.5844097,0.66296733,0.55689089,0.46939144,1.6805842,1.3981311,0.61403241,1.5958225,1.5316472,0.8853779,0.48152395,1.1325881
0.30323563,1.6914588,1.7655493,0.48199354,1.5127633,0.86600071,1.7213302,0.98962151,0.68471756,0.78095998,1.4010529,1.1166064,0.79700717,0.7816298,1.1697016,1.3162925,0.98077707,0.88512747,0.72264602,0.92655526,1.5719827,0.61950312,0.54604508,0.46214818,1.6883418,1.3926152,0.61519811,1.5694226,1.437908,0.94860887,0.44845136,1.0924807
0.27139423,1.6176704,1.7682448,0.51242034,1.4523088,0.8175488,1.7476528,1.0172293,0.66090934,0.73853916,1.4244693,1.0798319,0.76540527,0.77348308,1.1803694,1.2772579,1.0220144,0.89494392,0.68924771,0.89908954,1.5525585,0.57930559,0.53529547,0.45606668,1.6968237,1.3803939,0.61526969,1.5294291,1.3352471,1.0108872,0.41893842,1.0579085
0.24325103,1.5397869,1.7636237,0.54374225,1.3826817,0.77106275,1.7672058,1.0449998,0.63729398,0.69703962,1.4455691,1.0487877,0.73273605,0.76522683,1.1836998,1.2379937,1.064315,0.91133151,0.65783454,0.87639458,1.5252968,0.54345206,0.52405605,0.45146089,1.7050754,1.3607649,0.61526257,1.4779063,1.2277447,1.0698335,0.39312684,1.0287003
0.21929438,1.4602249,1.7499905,0.57577721,1.3067434,0.72684721,1.7791318,1.0724718,0.61410979,0.65677321,1.4643691,1.0243101,0.69994939,0.7574124,1.1773797,1.200418,1.105185,0.93346323,0.62787196,0.85774932,1.4896751,0.51299156,0.51196897,0.44837956,1.712068,1.3355412,0.61573656,1.4166287,1.11912,1.1230096,0.37114041,1.004282
0.19875328,1.3802161,1.7260675,0.60855292,1.2257971,0.6854668,1.782802,1.0991697,0.59137147,0.61849571,1.480742,1.0063463,0.66820137,0.75030593,1.1605316,1.1661081,1.1407176,0.96009794,0.5992821,0.84194599,1.4465068,0.48941309,0.4986318,0.4468815,1.7165624,1.3069989,0.61718403,1.3467633,1.0124549,1.167649,0.3530777,0.98318996
0.18215111,1.3009222,1.6908483,0.64205547,1.1421977,0.64786221,1.7756609,1.1245222,0.56898652,0.58255803,1.4955499,0.99426772,0.6388908,0.7440893,1.1345111,1.1361204,1.1658921,0.9901757,0.57265857,0.8279357,1.3970592,0.47285696,0.4835663,0.44692899,1.7170238,1.2775555,0.62012747,1.2692961,0.9099525,1.2014269,0.33896412,0.96337404
0.1687237,1.2236627,1.6437902,0.67630072,1.0573955,0.61383024,1.7574279,1.1480059,0.54682996,0.54954661,1.509518,0.98658557,0.6135623,0.73899252,1.1015466,1.1108039,1.1768368,1.0225145,0.54901727,0.81470546,1.3430599,0.46370529,0.46639735,0.44798944,1.711599,1.2496148,0.62484735,1.1858334,0.81332031,1.2226034,0.32875504,0.94282992
0.15885319,1.1488444,1.5859534,0.71117275,0.97301883,0.5838572,1.7282398,1.1682449,0.52486361,0.51956407,1.5236199,0.98083725,0.59381576,0.73519433,1.0636225,1.0899844,1.1731391,1.0556617,0.52929871,0.80152725,1.2867623,0.46240566,0.44741941,0.44934035,1.6995171,1.2253752,0.63150955,1.0980152,0.72408486,1.2320913,0.32225567,0.91922553
0.1520578,1.0775726,1.5181607,0.74612983,0.89045399,0.55852491,1.6879313,1.1844237,0.5033113,0.4927253,1.5384858,0.97409518,0.58089675,0.73295659,1.0230291,1.073303,1.1568576,1.088292,0.51388779,0.78816626,1.2297216,0.46987691,0.42696695,0.45022828,1.6808556,1.2060337,0.64009208,1.0070623,0.64352307,1.2313978,0.31910703,0.89019807
0.14845359,1.0094766,1.4432258,0.78047638,0.81053922,0.53736537,1.6394029,1.1944605,0.48244016,0.46898613,1.5542412,0.96356456,0.57533989,0.73242043,0.98208023,1.0603045,1.1305562,1.119187,0.50293359,0.77483866,1.1729593,0.4856213,0.40552986,0.45000549,1.6557866,1.1924757,0.65015754,0.91469043,0.57236054,1.2224979,0.31894984,0.85444618
0.14774977,0.94490013,1.362564,0.81345046,0.73429854,0.52077671,1.5834955,1.1973506,0.46240959,0.44811569,1.5708534,0.9470896,0.5769462,0.73321966,0.94312299,1.0497341,1.0968174,1.1468637,0.49635435,0.76187175,1.1175839,0.5095581,0.38382547,0.44842813,1.6250435,1.1851904,0.66134454,0.82331199,0.51068472,1.2078777,0.32138154,0.81187002
0.1498045,0.88318177,1.2787892,0.84476875,0.6618315,0.50880479,1.5206579,1.1925155,0.44346361,0.43012842,1.5881447,0.92375434,0.58494209,0.73426531,0.90856795,1.039509,1.0573982,1.1698509,0.49391375,0.74947551,1.0644786,0.54151013,0.36261362,0.44531372,1.5915907,1.1837846,0.67308927,0.73557432,0.45835089,1.1904067,0.32590441,0.76327868
0.15448863,0.82461541,1.1934323,0.87390782,0.59387704,0.50079142,1.4521784,1.179558,0.42559209,0.41456778,1.6057329,0.8938196,0.59812978,0.73409685,0.88036654,1.0266869,1.0129962,1.1863734,0.49529746,0.73768266,1.0142419,0.58103764,0.34232594,0.44046967,1.5584269,1.186943,0.68445333,0.65406274,0.41448647,1.1727792,0.33195864,0.71082529
0.16146855,0.76879578,1.1080988,0.90045884,0.53040676,0.49689449,1.3788604,1.1603484,0.40905969,0.4015347,1.6229797,0.85774343,0.61510196,0.73077541,0.8598036,1.0077167,0.96431818,1.1942003,0.50005359,0.72624921,0.96744378,0.62649236,0.323201,0.43437814,1.5280616,1.1922051,0.69445538,0.58078782,0.37820278,1.1566483,0.33893628,0.65633948
0.17071996,0.71574851,1.0239707,0.92390803,0.47225878,0.49658458,1.3024569,1.1354814,0.39400101,0.39056455,1.6390588,0.81602178,0.6345066,0.72164742,0.84752783,0.97969887,0.91366258,1.190055,0.50745397,0.71467276,0.92491624,0.67643448,0.30539833,0.42758034,1.5027449,1.1962968,0.70168633,0.51687108,0.34865952,1.1428412,0.34606371,0.6015376
0.18174483,0.6649175,0.94159171,0.94334238,0.4192106,0.49909615,1.2248089,1.1070284,0.38041382,0.38197705,1.6524185,0.76908996,0.65514945,0.70595161,0.84381616,0.94188235,0.86451232,1.1741163,0.51653435,0.70223147,0.88671939,0.72918532,0.28903756,0.4207362,1.4829607,1.1955391,0.70518787,0.46264243,0.32495847,1.1313345,0.35239945,0.54837278
0.19453055,0.6162146,0.86195962,0.95956387,0.37190673,0.50418448,1.1482874,1.0759931,0.36856091,0.37523224,1.6614943,0.71771201,0.67606267,0.6842055,0.84878561,0.8956936,0.82034737,1.1474435,0.52598187,0.68821457,0.85305963,0.78240298,0.27420202,0.41446916,1.4687447,1.1860835,0.70510349,0.41794759,0.30614595,1.1210402,0.35730518,0.4983063
0.20852803,0.56956561,0.78514171,0.97333177,0.32997035,0.51099185,1.0751433,1.0434399,0.3580979,0.37044161,1.6635252,0.66337679,0.69632085,0.6578797,0.86123673,0.84419873,0.78381028,1.1118843,0.53438814,0.67211512,0.82394942,0.83338499,0.26106325,0.4091302,1.4596251,1.1651943,0.70216621,0.38250414,0.29132304,1.1105149,0.36039648,0.45250658
0.22370784,0.52526566,0.71177011,0.9858413,0.29393978,0.51883568,1.0068523,1.0099673,0.34891378,0.36698284,1.6568376,0.60785542,0.71482567,0.62865023,0.8799301,0.79009242,0.75617762,1.0694351,0.5405524,0.6538897,0.79908887,0.87919975,0.24977439,0.40494464,1.4545566,1.1318898,0.69748637,0.35582948,0.27964874,1.0981788,0.36131085,0.41207345
0.23970203,0.48342293,0.64181022,0.99815773,0.26326244,0.52718345,0.94529848,0.97559868,0.34077812,0.36454177,1.6376277,0.55263132,0.73027224,0.59848966,0.90331581,0.73565934,0.73810372,1.0226424,0.54366965,0.63352994,0.7773618,0.91610523,0.24062179,0.4020673,1.4518753,1.0884885,0.69198404,0.33707539,0.27042748,1.0822906,0.35970195,0.3784819
0.25643025,0.44410694,0.57572173,1.0110762,0.23822637,0.53538924,0.89032328,0.9404566,0.33345858,0.36250182,1.6057975,0.49901002,0.74156697,0.56893483,0.92973984,0.68248797,0.73005864,0.97363891,0.54356199,0.61110538,0.7580518,0.94020312,0.23363192,0.40048403,1.4502666,1.0374167,0.68622203,0.3249165,0.26330468,1.060675,0.35544525,0.35194108
0.27366297,0.407298,0.51355829,1.0250291,0.21809922,0.54302839,0.84244518,0.90449526,0.32694468,0.36042525,1.5591316,0.44821513,0.74859576,0.54126069,0.95728009,0.63154386,0.73234404,0.92461692,0.54052971,0.58676049,0.74108517,0.94950615,0.22888652,0.40021351,1.448335,0.98107252,0.68078274,0.31794774,0.25845196,1.032174,0.34885947,0.33283568
0.29125668,0.37287636,0.45574111,1.0399204,0.20290401,0.54957525,0.80192641,0.86780672,0.32100585,0.35790075,1.5007946,0.40123511,0.75219331,0.51666741,0.98320111,0.58356551,0.74499568,0.87771701,0.53505134,0.56091848,0.72685561,0.94349866,0.22636367,0.40138237,1.4443398,0.92180869,0.67617887,0.31472406,0.25607962,0.99624093,0.340499,0.32146958
0.30895688,0.34085434,0.40279739,1.0553593,0.19182182,0.55504427,0.76787053,0.8303517,0.31554236,0.35458319,1.4306598,0.35880467,0.75324493,0.49607428,1.0044915,0.53926589,0.76744394,0.83435864,0.527643,0.53421729,0.71563231,0.92298308,0.22603737,0.40376112,1.4370007,0.86166467,0.67284815,0.31379099,0.25628538,0.95362346,0.33081543,0.31814208
0.3266031,0.31106071,0.35504907,1.0704555,0.18470958,0.55937562,0.74027665,0.79202813,0.31041417,0.35010202,1.3525093,0.32139129,0.75226451,0.48002569,1.0179545,0.49908058,0.79836294,0.79563221,0.51880959,0.50727504,0.7075686,0.89103722,0.2275338,0.40716321,1.4259814,0.80240224,0.67129209,0.31339163,0.25900969,0.90609348,0.32005531,0.32215424
0.34421,0.28361162,0.31315052,1.0841413,0.18084309,0.56242044,0.71805372,0.75298516,0.30541085,0.34432466,1.2669613,0.28909976,0.74918462,0.46904769,1.02045,0.46327752,0.83547812,0.76268761,0.50906338,0.48061216,0.70267805,0.85060651,0.23050491,0.41135365,1.4115941,0.74577886,0.67190307,0.31162913,0.26408422,0.85624119,0.3083864,0.33319227
0.36189394,0.25827159,0.27685857,1.0947575,0.18008424,0.56438985,0.69983699,0.71327614,0.3004258,0.33716113,1.177379,0.26218482,0.74336158,0.46358446,1.0100278,0.43189745,0.87545612,0.73592827,0.49868683,0.45484363,0.7003961,0.80400042,0.23461545,0.41599506,1.3948977,0.69378892,0.67501868,0.30722376,0.27135282,0.80654896,0.29597333,0.35102154
0.37992401,0.23512448,0.24683213,1.101382,0.18187076,0.56526181,0.68458278,0.67325414,0.29556375,0.32890038,1.0850931,0.24097657,0.73368056,0.4639161,0.98606688,0.40486835,0.91410344,0.71543935,0.48780846,0.43073019,0.69997122,0.75310551,0.23954405,0.42078719,1.3768868,0.6483521,0.68101975,0.29990035,0.28056927,0.75922624,0.2830644,0.37516085
0.39861278,0.21383242,0.22230797,1.1028573,0.18611495,0.56501807,0.67044623,0.63327385,0.29104525,0.3197088,0.99235358,0.2256814,0.71877257,0.46958836,0.95069615,0.3821079,0.94723117,0.70127761,0.47665388,0.40908071,0.70059065,0.69990463,0.24499159,0.42532349,1.3582628,0.61110432,0.69007812,0.28987737,0.2912965,0.71625283,0.26991745,0.4046807
0.41861381,0.19454892,0.20400401,1.0988978,0.19245863,0.56389176,0.656117,0.59381384,0.28718668,0.31006287,0.90086657,0.21632373,0.69748252,0.48028066,0.90623019,0.36365289,0.97192139,0.69367166,0.46552227,0.39063376,0.70128014,0.64591533,0.25073609,0.42890967,1.3395532,0.58374949,0.70210652,0.27746256,0.30299753,0.67957926,0.25662937,0.43908908
0.44008488,0.17698051,0.19073336,1.0899894,0.20090206,0.56195822,0.64036619,0.55524831,0.28411016,0.30033494,0.81173245,0.21275653,0.6693573,0.49543018,0.85501821,0.34950718,0.98680601,0.69154435,0.45460757,0.37615247,0.7009552,0.59254308,0.25664817,0.43076376,1.3208897,0.56646948,0.71711068,0.26318459,0.31494987,0.64987718,0.24318329,0.47807897
0.4636384,0.16140927,0.18322835,1.0755822,0.2112052,0.55946231,0.62286718,0.51823738,0.28203267,0.29089458,0.72631986,0.21471316,0.6346465,0.51433063,0.79969843,0.33948107,0.99096993,0.69420906,0.44386259,0.36656151,0.69887411,0.54137846,0.2626394,0.43003014,1.3022757,0.55962883,0.73488003,0.24782814,0.32621575,0.62745441,0.22973455,0.52084154
0.48928228,0.14754572,0.1800933,1.0557357,0.22341029,0.55676272,0.60342842,0.48291931,0.28098436,0.28216459,0.64498458,0.22189794,0.59442339,0.53537601,0.74294619,0.33336307,0.98382184,0.70122942,0.43312453,0.36218121,0.69462993,0.49346537,0.26852434,0.425394,1.2838656,0.56346079,0.75433798,0.23221842,0.33586763,0.61232026,0.21668079,0.56620274
0.51760832,0.13575361,0.1817118,1.0300074,0.23735718,0.55414028,0.58194744,0.44983307,0.28103656,0.2743608,0.56884948,0.23399803,0.55057606,0.55701913,0.68744397,0.33101293,0.96514999,0.71223375,0.42241587,0.36325777,0.6882006,0.44949781,0.27401672,0.41659968,1.2658032,0.57796736,0.77427789,0.2171718,0.34346548,0.60419538,0.20457785,0.61280533
0.54886928,0.12569373,0.18689114,0.99700908,0.25310988,0.55182275,0.55863935,0.41925745,0.28240076,0.26786303,0.49800933,0.25062676,0.50504853,0.57750524,0.63525931,0.33222421,0.9347172,0.72631587,0.41196079,0.36976593,0.68031581,0.40997775,0.27880092,0.40370121,1.2479675,0.60313927,0.79269761,0.20357546,0.34917118,0.60230716,0.19397963,0.65871176
0.5837215,0.11781442,0.19558732,0.95694587,0.27048484,0.54991723,0.5336258,0.39142554,0.28494593,0.26277408,0.43326524,0.27109436,0.45940594,0.59454259,0.58797676,0.33653763,0.89351557,0.74319376,0.40192696,0.38173033,0.67161826,0.37570359,0.28269273,0.38701705,1.2298021,0.63795975,0.80725384,0.19224267,0.35350005,0.60495722,0.18536654,0.70139887
0.62268239,0.11172097,0.20683298,0.9092897,0.28941709,0.54855188,0.50754349,0.36672096,0.2887511,0.25942776,0.37448758,0.29482631,0.41485273,0.60581682,0.54684522,0.3434677,0.84463535,0.76259615,0.3923227,0.39892006,0.66266058,0.34663613,0.28572675,0.36751045,1.2100699,0.68082692,0.81547604,0.18383879,0.35689933,0.61056174,0.17913726,0.73813101
0.66598561,0.10782667,0.22020983,0.85498001,0.30956449,0.54769218,0.48104555,0.34473217,0.29374025,0.25809902,0.32197086,0.32133053,0.37236473,0.6095759,0.51268623,0.35280511,0.79206499,0.78407506,0.38302742,0.42085392,0.65398429,0.32305251,0.28837811,0.34601226,1.1867966,0.72985955,0.81431671,0.17892011,0.35982304,0.61727612,0.17562535,0.76591831
0.71403646,0.10569065,0.23487111,0.79633317,0.33067168,0.54726665,0.45488192,0.32564509,0.29988923,0.25910529,0.27546473,0.35002618,0.33279591,0.60506442,0.48605961,0.36449829,0.73935224,0.80735243,0.3739098,0.44703728,0.64596683,0.30514703,0.29114968,0.32320802,1.1588837,0.78263842,0.80265311,0.17793237,0.36278136,0.62268938,0.17509411,0.78150562
0.76630928,0.10560659,0.2501862,0.73499501,0.35237905,0.54721899,0.42985667,0.30888081,0.3074761,0.26283757,0.23486544,0.38024948,0.29686685,0.59240609,0.46716803,0.37846984,0.68895884,0.83257852,0.36500372,0.47690812,0.63875533,0.29324904,0.29444726,0.29990714,1.1260056,0.83608353,0.78130354,0.18104708,0.36615622,0.62394436,0.17774187,0.78516157
0.82305295,0.10718811,0.26547564,0.67307054,0.37443667,0.54734785,0.40664022,0.29432287,0.31641301,0.26941273,0.19990736,0.41146445,0.26504428,0.5729256,0.45568306,0.39445757,0.64239403,0.86008198,0.35668455,0.50990514,0.63228172,0.28667145,0.29865553,0.27678141,1.0887053,0.88623605,0.75139957,0.18830491,0.37004853,0.61895716,0.18359599,0.77825671
0.88328939,0.11064179,0.28026473,0.61205322,0.39654487,0.54751736,0.3861251,0.28178749,0.32683377,0.27936296,0.17016728,0.44331092,0.23769367,0.54821403,0.45151089,0.41200261,0.6006063,0.89015023,0.34966081,0.54477664,0.62618463,0.28501966,0.30413143,0.25426397,1.0488001,0.92969722,0.71468324,0.19954542,0.37438445,0.60693525,0.19273363,0.76246274
0.94732565,0.11564158,0.29421912,0.55367431,0.41847976,0.54761433,0.36843196,0.27102324,0.33862232,0.2925545,0.14551859,0.4755786,0.21525333,0.51967595,0.45462668,0.43054867,0.56414622,0.92279899,0.34494868,0.5800876,0.62004561,0.28782721,0.31122806,0.23277632,1.0079857,0.96335062,0.67352851,0.21438735,0.37928696,0.58837164,0.20512647,0.73903679
1.0140957,0.12229252,0.30731473,0.4986221,0.4401233,0.54758401,0.35399863,0.26235784,0.35153881,0.30975359,0.12548781,0.50820529,0.19805199,0.48857411,0.46486407,0.44951783,0.53298506,0.95775433,0.3433286,0.61412277,0.61363443,0.29448431,0.3203246,0.21240509,0.96740127,0.98391638,0.62958369,0.23231125,0.38511294,0.56423868,0.22058797,0.71050377
1.0834065,0.13031431,0.3194854,0.44767803,0.46152569,0.54731943,0.34315613,0.25553084,0.36569392,0.3304942,0.11021662,0.54148658,0.18628989,0.45613136,0.48209404,0.46831337,0.50686922,0.9942084,0.34545932,0.6452031,0.60683165,0.30387592,0.33192561,0.19325906,0.92790545,0.98846976,0.58439842,0.25266827,0.39225427,0.53612567,0.23877593,0.67839934
1.1539469,0.13973909,0.33085402,0.40158064,0.48292679,0.54659831,0.33566845,0.25076294,0.38102307,0.3556413,0.099248795,0.57611465,0.17998894,0.42358997,0.50572839,0.48631075,0.48508825,1.0306573,0.35174226,0.67215274,0.59953535,0.31518731,0.34653471,0.17554124,0.89009214,0.97526814,0.53954782,0.2748321,0.40129985,0.50520952,0.25917993,0.64397531
1.2244045,0.15034362,0.34152977,0.36011433,0.50456812,0.54536243,0.33187561,0.24803137,0.39782337,0.38438202,0.092995887,0.61293746,0.17899809,0.39196653,0.53528948,0.50304161,0.46662258,1.0657926,0.36228751,0.69522818,0.59165789,0.32765145,0.36432777,0.15928287,0.85438552,0.94654572,0.49610892,0.29838947,0.41306338,0.47260148,0.28108229,0.60839792
1.2929308,0.16207258,0.35187603,0.32376118,0.52667219,0.54355084,0.33170477,0.24744222,0.41641564,0.4172281,0.090928326,0.65264968,0.18317386,0.36209373,0.5701193,0.51830749,0.45057339,1.0984934,0.37694075,0.71519798,0.58314392,0.3403689,0.3854161,0.14444718,0.8210584,0.90563231,0.45515722,0.32325631,0.42833545,0.43929193,0.30369768,0.57281424
1.3576517,0.1747664,0.36217466,0.29233893,0.54951009,0.54118942,0.33489817,0.24951949,0.43675808,0.45341631,0.093573786,0.69600306,0.19245471,0.33477959,0.6093963,0.53216385,0.43625355,1.1274934,0.39557875,0.73282131,0.57385658,0.35249482,0.4098361,0.13108532,0.79029185,0.85566908,0.41718324,0.34969721,0.44787097,0.4064732,0.32669382,0.538019
1.4170345,0.18841509,0.37277665,0.26545834,0.57325322,0.53844829,0.34165562,0.25429183,0.45902911,0.49301332,0.10023652,0.74382729,0.20676615,0.31025846,0.65235551,0.54489524,0.42277473,1.1526241,0.41787899,0.74843917,0.56387977,0.36334681,0.43766769,0.11928624,0.76137827,0.79973511,0.38243308,0.37812027,0.47252342,0.37527168,0.35047015,0.50459663
1.4706882,0.20296321,0.38419547,0.2436011,0.59794254,0.53533727,0.35136317,0.2625195,0.48284624,0.53540487,0.11151998,0.79664431,0.22599534,0.28874547,0.69835256,0.55718205,0.40898346,1.1742041,0.44372143,0.76215089,0.55344089,0.37228123,0.46851591,0.10898391,0.73335507,0.74067526,0.35125895,0.40870327,0.50300203,0.34661285,0.37551906,0.47288234
1.518156,0.21837156,0.39661298,0.22624974,0.62341002,0.53179557,0.3637296,0.27408501,0.50810467,0.58038581,0.1265803,0.85443736,0.25006232,0.2703683,0.74673624,0.56996817,0.39437112,1.1927784,0.47279875,0.7742275,0.54293005,0.378897,0.50199914,0.10018866,0.70493408,0.6810154,0.32371252,0.4411743,0.53952498,0.32120273,0.4021494,0.44286064
1.560571,0.23455332,0.41042284,0.21348182,0.64942002,0.52781085,0.37874835,0.28924935,0.53482199,0.62744693,0.14607533,0.91691691,0.27911572,0.25531343,0.7972665,0.58420731,0.37950133,1.2086217,0.50458396,0.78533227,0.53295613,0.38308621,0.53752304,0.093071118,0.67447458,0.62280007,0.2994901,0.47469091,0.58221802,0.29973475,0.43072016,0.41451517
1.5977323,0.25135433,0.42550738,0.20571308,0.67555543,0.52340208,0.39587067,0.30815637,0.56300615,0.6760712,0.16907471,0.98357067,0.31365151,0.24320434,0.84944514,0.60072437,0.36523582,1.2221918,0.53852444,0.79655834,0.52400978,0.38488609,0.57436192,0.087477001,0.64149129,0.56772696,0.27853949,0.5078598,0.63083827,0.28219732,0.46183353,0.38787631
1.6305675,0.26863996,0.44195919,0.20237117,0.70133603,0.51882742,0.41490612,0.33045503,0.59321995,0.72561147,0.19626936,1.0533936,0.35441802,0.23371,0.90258042,0.6199636,0.35237838,1.2334745,0.57411567,0.80909946,0.51644198,0.38463822,0.61148107,0.083405045,0.60647141,0.51719373,0.26100367,0.53898786,0.68480648,0.26858273,0.49612618,0.36323498
1.6581362,0.2862498,0.45963449,0.2036762,0.72626714,0.51438148,0.43554716,0.35661328,0.62563595,0.77528331,0.22690701,1.1251116,0.40199937,0.2265864,0.95585828,0.64196499,0.3418951,1.242039,0.6108835,0.82363069,0.51052979,0.38327767,0.64786215,0.080955297,0.57022553,0.47214482,0.24653044,0.56649851,0.74331335,0.25878186,0.53406248,0.34116544
1.6812433,0.30406057,0.47866368,0.20949627,0.74996516,0.51039677,0.45748736,0.38595633,0.66037982,0.82408776,0.26171838,1.1975209,0.45672413,0.22181147,1.008018,0.66624844,0.33477199,1.2475219,0.64818336,0.8403853,0.5065456,0.38181241,0.68274729,0.080078103,0.53344559,0.43336753,0.2350705,0.5894001,0.80516376,0.25270047,0.57553142,0.32243939
1.6989898,0.32186723,0.49910263,0.21937232,0.77225514,0.50715428,0.48087385,0.41875462,0.69768392,0.8712507,0.30009164,1.2693345,0.51874789,0.21947303,1.0573651,0.69170864,0.33172473,1.2499507,0.68511138,0.85913621,0.50467296,0.38118377,0.71584869,0.080742591,0.49668003,0.40081512,0.22684857,0.60741371,0.86860888,0.25031338,0.62027684,0.30812333
1.711846,0.33944031,0.52111266,0.23359596,0.7930344,0.50493323,0.50570502,0.45472421,0.73717865,0.91559467,0.34254674,1.3391384,0.5880113,0.21973275,1.1019064,0.71675987,0.33309623,1.2492776,0.72097218,0.87922485,0.50505754,0.38246665,0.74729358,0.083009507,0.46038637,0.37451457,0.22155045,0.6209005,0.93129969,0.25146954,0.66781083,0.29894552
1.7195817,0.35657552,0.54495358,0.25170812,0.81218458,0.50432625,0.53192626,0.49357404,0.77894197,0.95717813,0.38846631,1.4061061,0.66421243,0.22276812,1.1398611,0.73996891,0.33898181,1.2452131,0.755351,0.89951669,0.50763938,0.38651313,0.77754889,0.086895911,0.42495169,0.35447261,0.21906305,0.63051189,0.99123237,0.25620849,0.7173566,0.29529252
1.722322,0.37297039,0.57084911,0.27365397,0.82946584,0.50548977,0.55983586,0.53532832,0.8224651,0.99545958,0.43809205,1.4702171,0.74691171,0.22874819,1.1702555,0.76064953,0.34928472,1.2373577,0.78809274,0.91855405,0.51204796,0.39399689,0.80729822,0.09224653,0.39067178,0.34063982,0.21943773,0.63712918,1.0473181,0.26449176,0.76795942,0.29749888
1.7193328,0.38857968,0.59925169,0.30013869,0.84460608,0.50869819,0.5892822,0.57939306,0.86713704,1.0313377,0.49083295,1.5316271,0.83532494,0.23769534,1.1931967,0.77902753,0.3636716,1.2254218,0.81963917,0.93485316,0.51812179,0.40553482,0.83712799,0.099030619,0.35793335,0.33295662,0.22241017,0.64179513,1.0992037,0.27632674,0.81862426,0.30610891
1.7089315,0.4032482,0.63009926,0.33095125,0.85723885,0.51475182,0.62011363,0.62578854,0.91247936,1.0646522,0.54669766,1.5901976,0.92818657,0.24931388,1.2099786,0.79577261,0.3815191,1.2091272,0.85048602,0.94710033,0.52598696,0.42196445,0.86773007,0.10737062,0.32721221,0.33100419,0.22763694,0.64577882,1.1467566,0.29136879,0.86831927,0.32076457
1.6897671,0.41712519,0.66359341,0.36663302,0.86714076,0.52335363,0.65222804,0.67401064,0.95803043,1.0957854,0.60509106,1.6455859,1.0238528,0.26343565,1.2221708,0.81133914,0.40183311,1.1875772,0.88095765,0.95447933,0.53585084,0.44344552,0.899866,0.11708519,0.29905236,0.33398388,0.23494512,0.6505453,1.1900313,0.30936037,0.91584826,0.34109541
1.6589707,0.43007471,0.69917091,0.40761208,0.87430553,0.53461417,0.68522701,0.72377574,1.0035911,1.1247127,0.66557785,1.6975425,1.1202483,0.28005284,1.2311842,0.8255123,0.42317115,1.1599085,0.91140124,0.95748382,0.54741975,0.47024283,0.93398392,0.12814713,0.27350221,0.34126781,0.24425097,0.65735231,1.2291248,0.33005831,0.9599264,0.36668691
1.6170492,0.44226759,0.7365767,0.45364856,0.87880652,0.54879809,0.71886463,0.77439254,1.0490736,1.1519116,0.72729614,1.7454328,1.2147679,0.29950714,1.237829,0.83752508,0.44353264,1.1256384,0.9421225,0.95754748,0.56025769,0.50265018,0.97004824,0.14061193,0.25055003,0.35235433,0.25542701,0.66735914,1.2635771,0.35314293,0.99903471,0.39728222
1.5624121,0.45351728,0.77477713,0.50548689,0.88065201,0.56526177,0.75260053,0.82491937,1.0942888,1.1774813,0.78954031,1.7874154,1.3045899,0.32186272,1.2421833,0.84695882,0.46048228,1.0852303,0.97318402,0.955928,0.57409015,0.54142413,1.007852,0.15436298,0.23019702,0.36702634,0.26857398,0.68150876,1.2931873,0.37827812,1.0315376,0.4317914
1.4985968,0.46401761,0.81280188,0.56308839,0.87985754,0.58387662,0.78582425,0.87418711,1.1387234,1.2013275,0.85158968,1.8206166,1.386822,0.34729309,1.2434002,0.85416845,0.47180339,1.0394757,1.0043808,0.95340479,0.5892492,0.58606235,1.0473977,0.16926021,0.21268083,0.38544104,0.28404368,0.70015256,1.3173545,0.40502248,1.0558263,0.46940866
1.426516,0.47376136,0.84969208,0.62632948,0.87645259,0.60447446,0.8179485,0.92160879,1.1821767,1.2231113,0.91285812,1.8425209,1.4590802,0.37585321,1.2401187,0.8598538,0.4766182,0.99007851,1.0357945,0.9507141,0.60609837,0.63618826,1.0891997,0.18522997,0.19772102,0.40729169,0.30175694,0.72305264,1.3346231,0.43314817,1.070657,0.50921749
1.3497372,0.48315812,0.88396354,0.69608124,0.87055242,0.62644007,0.84834984,0.96639048,1.2245149,1.241985,0.97276537,1.8507887,1.5205036,0.40768425,1.2303297,0.86503462,0.47547979,0.93807105,1.067652,0.94914747,0.62506161,0.69116713,1.1337639,0.20220926,0.18519158,0.43232356,0.32188969,0.74964414,1.3424899,0.46245182,1.0755014,0.55025726
1.2698868,0.49248704,0.9147639,0.7714225,0.86237664,0.64939731,0.87629637,1.0081846,1.265902,1.2571648,1.0307861,1.8432355,1.5716695,0.44255195,1.2121007,0.87048933,0.46927904,0.88414125,1.1000604,0.94998572,0.64649811,0.7500755,1.1815088,0.2200895,0.17493845,0.46008111,0.34483707,0.77939107,1.3383182,0.49283259,1.0709633,0.59157351
1.1893006,0.50197155,0.94029687,0.85224789,0.85210241,0.67275956,0.90039425,1.0467757,1.3066493,1.2668161,1.0857581,1.8193483,1.6139353,0.48040774,1.1841853,0.87662075,0.45868088,0.82880707,1.1331888,0.95407765,0.67065503,0.81105861,1.231814,0.23886099,0.1668036,0.49000109,0.3707196,0.81223706,1.3209127,0.52411747,1.0579809,0.63240672
1.1096234,0.51179464,0.95987293,0.93837918,0.83982849,0.69597473,0.9201448,1.0812453,1.3467531,1.2703734,1.1366269,1.7807644,1.6480937,0.52115025,1.1466742,0.88409467,0.4443973,0.77293409,1.1668098,0.96178296,0.69741135,0.8725055,1.2833253,0.25864272,0.1604833,0.52163086,0.3997293,0.84856792,1.2909276,0.55610941,1.0380928,0.67193228
1.0322422,0.522076,0.97199026,1.0287923,0.82557196,0.71847938,0.93481321,1.1117099,1.3860384,1.2656567,1.1813377,1.7304699,1.6740707,0.56459608,1.1015551,0.89362107,0.42745698,0.7171665,1.2004042,0.97314146,0.72684827,0.93286892,1.333936,0.27938576,0.15596112,0.55478881,0.43237497,0.88867059,1.2499581,0.58858817,1.0126768,0.70910539
0.95809214,0.5332572,0.9762923,1.1232694,0.80936153,0.73967388,0.94328222,1.1374721,1.4239257,1.2540537,1.2191786,1.6724061,1.6913586,0.61011096,1.0516343,0.90547393,0.40939389,0.66190981,1.2331837,0.98730252,0.75904228,0.99078966,1.3807545,0.30111329,0.15336352,0.58951327,0.46908218,0.93190152,1.1994221,0.62123094,0.98349669,0.74311911
0.88804528,0.54573134,0.97168991,1.221024,0.79107684,0.75909729,0.94626101,1.1588903,1.4595723,1.235243,1.2482182,1.6103879,1.6987065,0.65692796,0.99931829,0.91936917,0.39184975,0.60759279,1.2640225,1.0033456,0.79366821,1.0456948,1.4211762,0.32386177,0.15278018,0.62569022,0.50984481,0.9768913,1.1401287,0.65358265,0.95244453,0.77330976
0.82213472,0.56038465,0.95739765,1.3212196,0.77070628,0.77602473,0.94412089,1.1758423,1.4925123,1.2119532,1.2690929,1.5470075,1.694996,0.70408013,0.9469333,0.93441465,0.3762271,0.555031,1.2919567,1.020058,0.82985021,1.096984,1.4538023,0.34742726,0.15415933,0.66299521,0.55484623,1.0220902,1.0736458,0.68526721,0.92115465,0.79922783
0.76116153,0.57777409,0.93345753,1.4232889,0.74844982,0.79050364,0.93806493,1.1883184,1.5211755,1.1855592,1.280699,1.4839885,1.6794667,0.75007852,0.89641753,0.94928263,0.36368125,0.50521464,1.316599,1.035759,0.86647371,1.1438798,1.4777372,0.37150382,0.15751864,0.70124343,0.6043245,1.0654518,1.0023043,0.71601067,0.89099056,0.82085697
0.70478847,0.59897669,0.90047572,1.5258247,0.72475775,0.80273142,0.92952815,1.1969292,1.5444918,1.1582748,1.285203,1.4234827,1.6517404,0.7926745,0.84936914,0.96261069,0.35502447,0.45923985,1.3384442,1.0484052,0.90209538,1.1853675,1.4919865,0.39587421,0.16295308,0.74035653,0.65765484,1.1040438,0.92896788,0.7455196,0.8628423,0.83860605
0.6541673,0.62442577,0.86051769,1.6273285,0.70019269,0.81264564,0.91928176,1.2013832,1.5613843,1.131596,1.2822528,1.3676794,1.6121405,0.82943586,0.80688998,0.97305721,0.35078639,0.41781067,1.3579051,1.0563474,0.93523825,1.2206158,1.4945535,0.42052935,0.17035443,0.77997086,0.71454975,1.1344982,0.85634541,0.77340554,0.83724599,0.85244814
0.60836217,0.6547944,0.8152886,1.7255566,0.67533955,0.82104437,0.90808841,1.202786,1.5700101,1.1068477,1.2738535,1.318021,1.5620635,0.8577818,0.76945135,0.97948572,0.35124188,0.38138905,1.3745457,1.0588056,0.96443212,1.2480725,1.4842705,0.44562352,0.17957944,0.81975928,0.77486923,1.1552667,0.78657531,0.79913018,0.81470788,0.86192875
0.56830216,0.69013628,0.76724257,1.8189203,0.65070357,0.82845398,0.89621645,1.2014745,1.5697086,1.0851006,1.2596219,1.2754502,1.5040532,0.87562947,0.737149,0.98108172,0.35649325,0.35041073,1.3870537,1.0558535,0.98792878,1.2651392,1.459656,0.47130842,0.1905739,0.85932555,0.8378245,1.1677842,0.72108247,0.82253396,0.79594096,0.86658031
0.53324566,0.73052951,0.7179979,1.9050114,0.62664372,0.83524081,0.8835888,1.1983238,1.5572903,1.0670904,1.2413373,1.2404771,1.4401325,0.88193299,0.70984614,0.97756911,0.36666849,0.32564641,1.3938473,1.0474987,1.0036343,1.2695702,1.420005,0.49762788,0.20343286,0.89803325,0.90292116,1.1751698,0.66060034,0.84390066,0.78156247,0.8661422
0.50362683,0.77572757,0.66906958,1.9811781,0.60355854,0.84191512,0.87023305,1.1939808,1.531404,1.0530419,1.2186719,1.2129355,1.3715598,0.8785562,0.68703082,0.96849509,0.38195926,0.3069528,1.3934533,1.0343234,1.0115436,1.2611974,1.365519,0.5243762,0.21797319,0.93491821,0.9696867,1.1806646,0.60553359,0.86368634,0.77185581,0.86036076
0.47867661,0.82513036,0.62179855,2.0457538,0.58176729,0.84871962,0.85611235,1.1885721,1.4917615,1.0430652,1.1926024,1.1920225,1.2989506,0.86705571,0.66782199,0.95367843,0.40229578,0.29428071,1.3856004,1.0171445,1.0124786,1.240731,1.3006215,0.55137834,0.23405175,0.9689836,1.0372274,1.1868652,0.55595322,0.88262349,0.76659269,0.84904016
0.45808841,0.8780571,0.5766448,2.0941957,0.56172717,0.85576837,0.8411706,1.1820097,1.4379044,1.0364601,1.1627463,1.1761935,1.2223513,0.84892041,0.65084547,0.93367798,0.42726794,0.28755217,1.3705315,0.99718381,1.0079804,1.2097745,1.2291987,0.57842874,0.25153497,0.99942699,1.1047802,1.1950461,0.51172772,0.90184855,0.76522661,0.83334563
0.44131059,0.93332769,0.53468893,2.1246567,0.54378441,0.86294532,0.82557587,1.1736617,1.3739821,1.0328963,1.1299661,1.1633222,1.1423035,0.82539614,0.63525271,0.90920409,0.45631023,0.28699201,1.3485857,0.97573067,0.99972247,1.171431,1.1548651,0.60530073,0.27034839,1.0253516,1.1715664,1.2050359,0.47263663,0.92226133,0.76725738,0.81484069
0.42795298,0.98987786,0.49584194,2.1362234,0.52841881,0.87004206,0.80945384,1.1634504,1.302128,1.031301,1.0945815,1.1516344,1.0606672,0.79833623,0.62040468,0.88093343,0.48909518,0.29175784,1.3207193,0.95380313,0.9896872,1.1287871,1.0807145,0.63176118,0.29011607,1.0457093,1.2364486,1.2155581,0.43843338,0.94442778,0.7722308,0.7947433
0.41795641,1.0463029,0.46090924,2.12594,0.515814,0.87667445,0.79296819,1.1514543,1.2255871,1.0311705,1.0576183,1.1397895,0.97990453,0.76885193,0.60588804,0.84981741,0.52540755,0.3013449,1.2884441,0.93212785,0.97887503,1.0841871,1.0091289,0.65750756,0.31046375,1.0593118,1.298569,1.2247795,0.4089459,0.9685899,0.77941252,0.77386661
0.41074995,1.1010725,0.42952442,2.0973837,0.50629902,0.88254435,0.77610804,1.1381178,1.1468074,1.0316891,1.0195817,1.1267038,0.90235571,0.73771537,0.59124975,0.81720078,0.56491912,0.3151986,1.2529125,0.91125213,0.96764233,1.0393704,0.94142496,0.68209421,0.33094314,1.0648156,1.3569379,1.2312774,0.38363505,0.99491673,0.78830111,0.75286683
0.40629892,1.1528266,0.40198052,2.051711,0.49990274,0.88724542,0.75857597,1.1240124,1.0679243,1.0326971,0.98134331,1.1118571,0.82962882,0.7056179,0.5760118,0.78500446,0.60725274,0.33261427,1.2150953,0.8915992,0.95582912,0.99537278,0.87844851,0.70515436,0.3510093,1.0615492,1.4094588,1.2336674,0.36220258,1.0231877,0.79857604,0.7322064
0.40378422,1.1996677,0.37772408,1.9909983,0.49684663,0.89036984,0.74009723,1.1090666,0.9905919,1.033994,0.94381114,1.0948337,0.76263547,0.67375268,0.55993747,0.75521846,0.6517926,0.35256414,1.1753792,0.87335048,0.94320613,0.95262521,0.82136272,0.72638053,0.37035123,1.049606,1.4548725,1.2306653,0.34463052,1.0530604,0.81017112,0.71220387
0.40292169,1.2409169,0.35659692,1.9189523,0.49696229,0.89163882,0.7205679,1.0929498,0.91602756,1.0353639,0.90786262,1.0746106,0.7017672,0.64323807,0.54302359,0.72929951,0.69767456,0.37432507,1.1338855,0.85636003,0.92964138,0.91130978,0.77140285,0.74543081,0.38903674,1.0299807,1.4919526,1.2224326,0.33106834,1.0841573,0.82326703,0.69317465
0.40274426,1.2741996,0.3381715,1.8375528,0.50021571,0.89012769,0.6996188,1.0747238,0.84497397,1.0364381,0.87434096,1.0494165,0.64694611,0.61493628,0.5253663,0.70805862,0.7436606,0.39713063,1.0905365,0.84008774,0.91488796,0.87132223,0.72888329,0.76249994,0.40742504,1.0041997,1.5192051,1.2105099,0.3216088,1.1159423,0.83800428,0.67537658
0.40258105,1.2993053,0.32224385,1.7504461,0.5061999,0.8851076,0.67719101,1.053454,0.77744642,1.0367832,0.84387396,1.0172148,0.59789763,0.58966235,0.5069172,0.6917183,0.78809221,0.41994796,1.0450701,0.82385545,0.89825617,0.83193171,0.6939113,0.77759151,0.4258928,0.97467587,1.5367252,1.1967356,0.3161169,1.1471728,0.85461025,0.65904776
0.40171738,1.3135963,0.3086911,1.6605471,0.51473553,0.87634135,0.65335531,1.0290015,0.71426957,1.0361264,0.81688119,0.97660907,0.55445356,0.56807476,0.4874383,0.67982832,0.82917728,0.44165994,0.99719312,0.8069058,0.87879594,0.79220138,0.66624455,0.79076615,0.44459173,0.94471165,1.5449646,1.1819758,0.31421803,1.1759335,0.87312581,0.64414116
0.39951401,1.3185568,0.29730674,1.5706071,0.52547914,0.86318564,0.62827315,1.0013603,0.655201,1.0344024,0.79360618,0.9278946,0.51656412,0.5504942,0.46703108,0.67120584,0.86540345,0.46106956,0.94717124,0.78832308,0.85571301,0.75129425,0.64532563,0.80262026,0.4634664,0.91705798,1.5443465,1.1661305,0.3153224,1.1997499,0.89283335,0.63053062
0.3956949,1.312139,0.28809347,1.48279,0.53835286,0.84634106,0.6023637,0.9716503,0.60058047,1.0317363,0.77392448,0.87292077,0.48430532,0.53727848,0.44640068,0.66413146,0.89611376,0.47683106,0.89533469,0.76763136,0.82879925,0.70882359,0.62938497,0.81391513,0.48223847,0.89392481,1.5365854,1.1484496,0.31854789,1.2160374,0.91244728,0.61819416
0.39007314,1.2970248,0.28070029,1.3982919,0.55299576,0.82666059,0.57593424,0.94069457,0.5504488,1.0281575,0.7577062,0.81412757,0.45768067,0.5288172,0.42645873,0.65672692,0.92172715,0.48843005,0.84252483,0.74447381,0.79882474,0.66524629,0.61670037,0.82546999,0.50053184,0.8769825,1.5242036,1.1274781,0.32300253,1.2225664,0.93047256,0.60741016
0.38260319,1.2724037,0.27509608,1.317857,0.5690391,0.80468331,0.54940146,0.90977382,0.50421657,1.0233198,0.74437362,0.75375362,0.43656447,0.52561752,0.40808181,0.64726608,0.94336447,0.49589884,0.79017594,0.71839649,0.76662025,0.62118806,0.60530704,0.83812769,0.5180573,0.86741614,1.5093876,1.1018703,0.32773062,1.2201434,0.94514361,0.59878497
0.37344382,1.2412255,0.27083888,1.2409886,0.58581012,0.78161552,0.52310491,0.87980556,0.46236647,1.0168944,0.73369274,0.69380917,0.42075815,0.52756518,0.39205944,0.63446333,0.9621947,0.49942338,0.73991483,0.68935869,0.73289569,0.57730977,0.59364184,0.85231837,0.53446195,0.86555464,1.4945987,1.0719034,0.33197338,1.2105478,0.95427294,0.59316987
0.36268067,1.2036061,0.2678985,1.1676989,0.60243954,0.75825111,0.49745415,0.85153849,0.42457333,1.008037,0.72502568,0.63586726,0.41000095,0.53470163,0.37922421,0.61772531,0.97872959,0.49918591,0.69320108,0.6583435,0.69824229,0.53442669,0.58118171,0.86832306,0.54915168,0.87075025,1.4814954,1.0388052,0.33518753,1.1960681,0.95547893,0.59097598
0.35077972,1.1619778,0.26583872,1.0976453,0.61796309,0.73543,0.47283109,0.8250397,0.39095167,0.99660267,0.71799315,0.58101059,0.40379052,0.5469053,0.36983437,0.59736603,0.99256576,0.49631368,0.65059423,0.62690855,0.66346102,0.49310549,0.56819724,0.88651719,0.56188215,0.88233842,1.4708054,1.0037922,0.3369593,1.1789175,0.94686986,0.59257179
0.33815697,1.1171341,0.26461177,1.0304473,0.63120477,0.71362975,0.44946317,0.8004499,0.36175293,0.98150227,0.71189643,0.53007951,0.40127181,0.56417928,0.36397033,0.57430277,1.0029081,0.49185525,0.61223347,0.59627108,0.6292761,0.45372408,0.55531101,0.90680882,0.57242083,0.89954755,1.4626506,0.9678116,0.33694161,1.1613765,0.92753817,0.59837749
0.32548056,1.070692,0.26390702,0.96642413,0.6415207,0.69321944,0.42774052,0.77701275,0.33644045,0.96275691,0.70637448,0.48379579,0.40163941,0.58570625,0.36151783,0.54963537,1.0089711,0.48675415,0.57796305,0.56740886,0.59622058,0.41662861,0.54300546,0.92935098,0.58069206,0.92160954,1.4556647,0.9310498,0.33517391,1.1451048,0.89871377,0.60846973
0.31344803,1.0237553,0.2636371,0.90543171,0.64812424,0.67462354,0.4075384,0.75430163,0.31527818,0.93887469,0.70102524,0.44280125,0.40454308,0.61104527,0.36218038,0.52428708,1.0100471,0.48177967,0.54759034,0.54109712,0.56471849,0.38228317,0.53125894,0.95418902,0.58712053,0.94748105,1.447972,0.89326903,0.33215868,1.1314471,0.86264102,0.62230808
0.30251632,0.97734182,0.26354242,0.84761901,0.65108565,0.65759891,0.38879004,0.73202596,0.29767318,0.91025998,0.69557429,0.40733399,0.409688,0.63970467,0.36544859,0.49878848,1.005815,0.47735417,0.52103177,0.51765216,0.53503066,0.35076671,0.51958588,0.98060105,0.59271791,0.97525291,1.4371871,0.85449024,0.3284254,1.1216501,0.82178927,0.63923174
0.29334635,0.93223499,0.26341452,0.79363358,0.65017825,0.64212162,0.3714917,0.71013034,0.28325197,0.87626575,0.68976391,0.37734825,0.41636408,0.67121088,0.37048831,0.47350588,0.99664276,0.47367563,0.4982446,0.49689387,0.5077478,0.3221852,0.50733791,1.0074729,0.59836429,1.0033239,1.4212676,0.81484542,0.32431681,1.1169173,0.77870878,0.6585458
0.28612557,0.88864495,0.26305062,0.74328794,0.64578388,0.62803462,0.35539608,0.68861577,0.2719224,0.83784636,0.68307064,0.35262443,0.42362248,0.7045476,0.37619833,0.44878706,0.98385369,0.47082774,0.4792143,0.47867343,0.48366797,0.29660073,0.49391579,1.0331544,0.60490665,1.0300993,1.399146,0.77409727,0.3199398,1.1172188,0.73555013,0.67936596
0.28128558,0.84678695,0.26232049,0.69688468,0.63779095,0.61477091,0.34054525,0.6672654,0.2629653,0.79552634,0.67535685,0.33289561,0.43055914,0.73843035,0.38183588,0.42496332,0.96968966,0.46876848,0.46410806,0.46292206,0.46346907,0.27411313,0.47900876,1.0551814,0.61322209,1.0539688,1.3692034,0.73207878,0.31527868,1.1222357,0.69393003,0.70076522
0.27891809,0.80649681,0.26127097,0.65431427,0.62652684,0.60185535,0.32700585,0.64576714,0.25620955,0.75048667,0.6661781,0.31791265,0.43616701,0.77118619,0.38699459,0.4023279,0.95627518,0.46731335,0.45292394,0.44976775,0.44716733,0.25469103,0.4626323,1.0715937,0.62385725,1.0730374,1.3291435,0.68926348,0.31029146,1.131103,0.65510213,0.72170563
0.27912012,0.7676644,0.25998568,0.6149517,0.61171176,0.58864247,0.314722,0.62385989,0.25118339,0.70346053,0.65562547,0.30740761,0.43918232,0.80045691,0.39138085,0.38127864,0.94489287,0.46640948,0.4455248,0.43925695,0.43466703,0.23848349,0.44488067,1.0805386,0.63728455,1.0851571,1.2793523,0.64662435,0.30494463,1.1420626,0.62026102,0.7408211
0.28196053,0.72990696,0.25852872,0.57863706,0.59362127,0.57462888,0.3038523,0.60149691,0.24759031,0.65527886,0.64325815,0.30105561,0.4383736,0.82349541,0.39468065,0.36231064,0.93623768,0.46603218,0.44184538,0.43147389,0.42569471,0.22573065,0.42601354,1.0795179,0.654088,1.0887593,1.2208679,0.60517906,0.29953441,1.152046,0.59042704,0.7569987
0.28721488,0.69272101,0.25692545,0.54472339,0.57212661,0.55921259,0.29431444,0.57868563,0.24539528,0.60685005,0.62928123,0.29841216,0.43275185,0.83833055,0.39685493,0.34577264,0.93065406,0.46590456,0.44193024,0.42647902,0.41938916,0.21644214,0.40642634,1.0689482,0.67440867,1.0830312,1.1551444,0.56599278,0.29466601,1.1573972,0.56641404,0.76947392
0.29490163,0.65561476,0.25519314,0.5128068,0.54787668,0.54202412,0.28595136,0.55559733,0.24426894,0.55918922,0.61357829,0.2987879,0.42181707,0.84388563,0.39797903,0.33171419,0.92830338,0.4656533,0.44572981,0.42436497,0.41466762,0.2103297,0.38669697,1.0490812,0.69781379,1.0676146,1.0853544,0.53039894,0.29089065,1.1542903,0.54871941,0.77765299
0.30445177,0.61835685,0.25334134,0.4827305,0.52135673,0.52307216,0.27867216,0.53259112,0.2442004,0.51301558,0.59668012,0.30120001,0.40603786,0.84029075,0.39801902,0.31995731,0.9298505,0.46508017,0.45323275,0.42516549,0.41072461,0.2072437,0.36730394,1.0202069,0.72367413,1.0428581,1.013615,0.4996542,0.28862036,1.1396863,0.53738379,0.78070434
0.31569924,0.5810021,0.25130639,0.454021,0.49345866,0.50227762,0.27200771,0.51010618,0.24505052,0.46931211,0.57885567,0.30437499,0.38674095,0.82887637,0.39682695,0.3103136,0.9363134,0.46405309,0.4642619,0.42843344,0.40732381,0.207155,0.34869588,0.98443538,0.75108944,1.0100876,0.94198758,0.47446752,0.28810694,1.1117878,0.5320504,0.77845348
0.32786794,0.54384346,0.24904916,0.42662017,0.46489723,0.48010572,0.2655287,0.48853588,0.2466787,0.42815517,0.5604854,0.30712238,0.36554731,0.81172782,0.39403844,0.30268016,0.94800638,0.46243303,0.47851228,0.43392095,0.40460456,0.20972208,0.33132241,0.94397648,0.7786252,0.97188437,0.87234324,0.45493355,0.28940725,1.0720611,0.53208016,0.77042234
0.3404846,0.50740179,0.24650837,0.4003672,0.43641483,0.45701122,0.2586366,0.46821419,0.2492586,0.39040624,0.54182232,0.30848085,0.34403366,0.7903543,0.38889814,0.29691541,0.96398046,0.46022178,0.49574441,0.44130828,0.40272638,0.21446721,0.31534093,0.90082976,0.80510207,0.93022923,0.80591292,0.44059941,0.29242211,1.0231994,0.53660369,0.75641885
0.35298706,0.47219627,0.24373219,0.37494559,0.40869031,0.43340469,0.25102526,0.44935541,0.25278079,0.35565487,0.52332066,0.30781471,0.32338554,0.76625316,0.3809034,0.29266376,0.98246653,0.45763622,0.51558772,0.45016396,0.40176839,0.22091816,0.30079274,0.85717847,0.82963731,0.88675497,0.74382931,0.4304751,0.2970758,0.96787561,0.54445095,0.73623621
0.36498481,0.43890748,0.24066404,0.35028211,0.38210895,0.40983245,0.24250614,0.43250078,0.25738224,0.32458536,0.50546801,0.3051371,0.30429249,0.740854,0.37017935,0.28963791,1.0021306,0.45499208,0.53760383,0.45998466,0.40175834,0.22847979,0.28762616,0.81471855,0.85144062,0.84260714,0.68681367,0.42307185,0.30341982,0.90883071,0.55383239,0.71067779
0.37623742,0.40783543,0.23733945,0.32635909,0.35714979,0.38664624,0.23301048,0.41758502,0.26304356,0.2966678,0.48867164,0.30101215,0.28704242,0.71561085,0.35746497,0.28762841,1.0225742,0.45253029,0.56125804,0.4703364,0.40252503,0.23626485,0.27577945,0.77472302,0.87031986,0.79850666,0.63462225,0.41686461,0.31168096,0.8486017,0.56255414,0.68022016
0.38642162,0.37958771,0.2336515,0.30327515,0.3338533,0.36429281,0.22272075,0.40493476,0.26953871,0.27222426,0.4732681,0.29608777,0.27173188,0.69145533,0.34363133,0.28643343,1.0435587,0.45027624,0.58568489,0.48086123,0.40391487,0.24347532,0.26512962,0.73867561,0.88585631,0.75486627,0.58706213,0.41078435,0.32195224,0.78910862,0.56840221,0.64548026
0.3952165,0.35400239,0.2295615,0.2814371,0.31247818,0.34283898,0.21180237,0.394285,0.27677437,0.25081037,0.45952141,0.29097993,0.25837698,0.66892379,0.32940313,0.28583647,1.0640838,0.44809301,0.60977716,0.49117341,0.40570823,0.24947834,0.25556475,0.70682571,0.89764945,0.7117123,0.54403225,0.40424518,0.33408103,0.73142196,0.5697002,0.60747107
0.40224886,0.33151361,0.2248254,0.26099336,0.29281095,0.32241957,0.20059453,0.38535772,0.28443431,0.23254069,0.44756633,0.28627123,0.2471166,0.64846643,0.31543139,0.28557583,1.0826477,0.44563921,0.63249779,0.50069455,0.40767213,0.25387142,0.24710459,0.67934304,0.90519205,0.66886149,0.5046102,0.39727156,0.3476631,0.67612001,0.56559717,0.56758693
0.40691878,0.31161992,0.21930388,0.2421214,0.27489263,0.30324659,0.18941768,0.37780088,0.29223735,0.21718089,0.43757865,0.28236481,0.23816239,0.63013448,0.30219537,0.28540448,1.0976578,0.44251227,0.65335328,0.50857859,0.40951104,0.25691948,0.23980997,0.65647913,0.90859446,0.6262223,0.46826895,0.39052835,0.3620756,0.62362108,0.55610336,0.52691586
0.40894755,0.29467121,0.21279713,0.22496721,0.25835677,0.28513572,0.17867509,0.37103809,0.2997179,0.20458106,0.42951899,0.27945518,0.2316273,0.61383269,0.29000667,0.28523501,1.1073863,0.43830061,0.67222146,0.5137914,0.41088779,0.25905522,0.2337288,0.6378391,0.90810907,0.58414854,0.43466249,0.38469417,0.3765212,0.57426512,0.54206826,0.48663119
0.4075322,0.28003842,0.20544074,0.20924235,0.24310965,0.26810544,0.16861026,0.3646372,0.30644829,0.19454547,0.42348349,0.2775564,0.22749983,0.59960287,0.27902007,0.28515078,1.110018,0.43251809,0.68899908,0.51539667,0.41149225,0.26075572,0.22882659,0.62296213,0.90411801,0.54331605,0.4034277,0.38031047,0.38997324,0.52834195,0.52493768,0.44792318
0.4028163,0.26806644,0.1974113,0.1948638,0.22886217,0.25217317,0.15940334,0.35822013,0.31189544,0.18675104,0.41925685,0.27662129,0.22568668,0.58784469,0.26924113,0.28525689,1.1045178,0.42479839,0.70382079,0.51281279,0.41120416,0.2625395,0.22518617,0.61153726,0.89701477,0.50430838,0.37467513,0.37766802,0.40119665,0.48608973,0.50647706,0.41163781
0.39398513,0.25814264,0.18902208,0.18164758,0.21562314,0.23715246,0.15123343,0.35171984,0.31595297,0.18115921,0.41690808,0.27651509,0.22613127,0.57894367,0.26063029,0.28557041,1.0911273,0.41516704,0.71713896,0.50565014,0.40993968,0.2649166,0.22291184,0.60316472,0.88739227,0.46775908,0.3488085,0.37665666,0.40903494,0.44753636,0.48826185,0.37847423
0.3819012,0.25063392,0.18051405,0.16947472,0.20326589,0.2231241,0.14401287,0.34522959,0.31857687,0.17733636,0.41614125,0.27693778,0.22879986,0.5731253,0.25311448,0.28606518,1.0709864,0.40378913,0.72964462,0.4945284,0.40736106,0.26828562,0.22215987,0.59716368,0.87593853,0.43420634,0.32603516,0.37710782,0.41291969,0.41271035,0.47141675,0.34909192
0.36652459,0.24493695,0.17209244,0.15847497,0.19195557,0.21014571,0.13777738,0.33884581,0.31959193,0.17520518,0.41710886,0.27745557,0.23351245,0.57083825,0.24667731,0.28666093,1.0459879,0.39104743,0.74187808,0.47994344,0.40287893,0.27294525,0.22275029,0.59295617,0.86383196,0.40404308,0.30627573,0.3789725,0.41296853,0.38110879,0.45668684,0.32369497
0.34902131,0.24121513,0.1638817,0.14854517,0.18165806,0.19814383,0.13245303,0.33271089,0.3190832,0.17420953,0.41958619,0.27751916,0.23993326,0.57277487,0.24143588,0.28719912,1.0179816,0.37777308,0.75376103,0.46240942,0.39621282,0.27919017,0.22452533,0.58985235,0.85249879,0.37760509,0.28959258,0.38189653,0.40984039,0.35263505,0.44452623,0.30214992
0.32990943,0.23892881,0.1559922,0.13966286,0.17260089,0.18727397,0.12783534,0.32697602,0.3168013,0.17426902,0.42383593,0.27654544,0.24764987,0.57954976,0.23752645,0.28742905,0.98815646,0.36476206,0.76491654,0.4425239,0.38740279,0.28695146,0.22732124,0.58687792,0.84273366,0.35479787,0.27601568,0.38521638,0.40431525,0.3273928,0.43512406,0.28439749
0.30997197,0.23817607,0.14845044,0.13194015,0.16470884,0.17752086,0.12378629,0.32192871,0.31294262,0.17503411,0.42959527,0.27417094,0.25632307,0.5910205,0.23496516,0.28713678,0.95679903,0.35265152,0.77470693,0.42120398,0.37660605,0.29612422,0.23108457,0.58333648,0.8348846,0.33543123,0.26499427,0.38836633,0.39718182,0.30558242,0.42850836,0.27050959
0.28968519,0.23867253,0.14135716,0.12526824,0.15814412,0.16878078,0.12001911,0.31772052,0.30782041,0.17656859,0.43722887,0.27033094,0.26588909,0.60689862,0.23362732,0.28623102,0.92333334,0.34215558,0.78206221,0.39951577,0.36408197,0.30644784,0.23585334,0.57860279,0.8293431,0.3191612,0.25611217,0.39113542,0.38921455,0.28725126,0.4248738,0.26018279
0.26949119,0.24054723,0.13468257,0.11975319,0.15271798,0.16117436,0.11633597,0.31445083,0.30175861,0.17875623,0.44641635,0.26515513,0.27656183,0.62653944,0.23324347,0.28470023,0.88711912,0.33367985,0.78554334,0.3784912,0.3504238,0.31743637,0.24177057,0.57254972,0.82630533,0.30555024,0.24890222,0.39343551,0.38079639,0.27206603,0.42459021,0.25321011
0.2496839,0.24356014,0.12850397,0.11545145,0.14848275,0.15459144,0.11268265,0.31218998,0.29533824,0.18168644,0.45738404,0.25876919,0.28874385,0.64889463,0.23370686,0.28265028,0.84806287,0.32749319,0.7841757,0.35919784,0.33610685,0.3283442,0.24899391,0.56542156,0.82606738,0.29410643,0.24255269,0.39527976,0.3720572,0.25974464,0.42783458,0.24944987
0.23053646,0.24770931,0.12270155,0.11225564,0.14517972,0.14895165,0.10911633,0.31070507,0.28897962,0.18536933,0.46956169,0.25124309,0.3027984,0.67217518,0.23500327,0.28017609,0.80630525,0.32381314,0.77692114,0.34272944,0.32153799,0.33835523,0.25770422,0.5574339,0.82888394,0.284246,0.23665004,0.39686775,0.36322639,0.24989106,0.43455182,0.2488909
0.21214601,0.25274176,0.11729498,0.1102348,0.14275417,0.14436433,0.10571897,0.30983545,0.28306997,0.1899844,0.48279442,0.24277438,0.31888979,0.69467647,0.23719666,0.27724543,0.7621241,0.32302449,0.7627966,0.3297627,0.30707461,0.34646468,0.26797744,0.54886908,0.83491582,0.27537515,0.23104781,0.39831048,0.35482281,0.24210757,0.444301,0.25103642
0.19476149,0.25856832,0.11217527,0.10926346,0.14092129,0.14062237,0.10260633,0.30924312,0.27778115,0.19563643,0.49654118,0.23355391,0.33682875,0.71463471,0.24037109,0.27372191,0.71614821,0.32503137,0.74150182,0.32070136,0.29291188,0.35174362,0.27960661,0.54006458,0.84338091,0.26696291,0.22585189,0.39951806,0.34767126,0.23569418,0.45634056,0.2554611
0.17832311,0.26498677,0.10735848,0.10924831,0.13951793,0.1376308,0.099847325,0.30880785,0.27335508,0.20240675,0.51039131,0.22385383,0.35604926,0.72975001,0.2444887,0.26934106,0.66922464,0.32999368,0.71385709,0.31572382,0.27913354,0.35410029,0.29227489,0.53122927,0.85359803,0.25860358,0.22126015,0.4005164,0.34268066,0.22995241,0.47003605,0.26171137
0.1631618,0.27178998,0.10277967,0.11024833,0.13829257,0.13546333,0.097576005,0.30855916,0.26977548,0.21040851,0.52378881,0.21415994,0.37569955,0.73812354,0.24924723,0.26377022,0.62269789,0.33814984,0.68162044,0.31474392,0.26579386,0.35380067,0.30554515,0.52259691,0.86486429,0.25016463,0.21749655,0.40184002,0.34073561,0.22421566,0.485128,0.26939113
0.14915723,0.27866258,0.098450861,0.11201677,0.13706944,0.13393942,0.095894306,0.30866096,0.26725864,0.21968207,0.53611684,0.20491778,0.39460374,0.73848338,0.25426921,0.2567627,0.57806726,0.34969932,0.64715384,0.3175908,0.2528925,0.35141071,0.31887512,0.51435639,0.87615906,0.24173899,0.21480067,0.40431942,0.34225084,0.21784496,0.50179177,0.27786799
0.13657233,0.2851924,0.094341713,0.11443638,0.13572626,0.13307903,0.094804117,0.30940807,0.2660838,0.23050725,0.54696915,0.19637544,0.41123031,0.73081443,0.25914211,0.24831082,0.53682522,0.36434579,0.61209093,0.32359011,0.2403193,0.34764871,0.33171519,0.50655345,0.88629605,0.23353389,0.21327687,0.40862009,0.34741961,0.21032163,0.52049209,0.28662573
0.12524711,0.29093936,0.090473178,0.11733723,0.13420308,0.13299252,0.09438976,0.31083641,0.2664008,0.24283862,0.55563645,0.18862533,0.42389825,0.71611033,0.26349267,0.23852651,0.50041243,0.38189796,0.57775156,0.33237622,0.22800903,0.34306864,0.34350093,0.49906649,0.89429595,0.22572985,0.21305232,0.41519664,0.35610161,0.20161163,0.5413551,0.29513793
0.11529183,0.29548383,0.08684946,0.1204966,0.13255807,0.13355685,0.094615848,0.31305483,0.26873291,0.25698764,0.5618512,0.18170193,0.43096556,0.69631197,0.26711074,0.22751632,0.47009491,0.40204031,0.54510206,0.34360566,0.21606454,0.33800853,0.35363036,0.49155242,0.89908313,0.21845456,0.21432129,0.42419113,0.36794035,0.1919209,0.56411108,0.3029475
0.10659674,0.29853775,0.083479268,0.12376583,0.13084733,0.13478381,0.095445758,0.31592741,0.27305922,0.27265111,0.56537715,0.17563436,0.4310759,0.67325015,0.26996427,0.21552072,0.44674534,0.42401381,0.51472686,0.35702755,0.20481075,0.33270023,0.36133384,0.48350456,0.89921405,0.211817,0.21690558,0.43531906,0.38261338,0.1815889,0.5881473,0.30998486
0.099132417,0.30006277,0.080357045,0.12698508,0.12915529,0.13669722,0.096927774,0.31925036,0.27955843,0.29002575,0.56643611,0.17051092,0.42409942,0.64850341,0.27207152,0.20289526,0.43075189,0.44677872,0.48703698,0.37229599,0.1945739,0.32724957,0.36632201,0.4741963,0.89332248,0.20592589,0.22067671,0.44813937,0.39989399,0.17102804,0.61241753,0.31633273
0.0928149,0.30005317,0.07747816,0.13003381,0.12760689,0.13918963,0.098910329,0.32269388,0.28823908,0.30859872,0.5650799,0.16638161,0.411088,0.6234156,0.27347352,0.19003512,0.42192303,0.46922773,0.46200197,0.38897569,0.18567702,0.32171764,0.36857166,0.46288659,0.8803648,0.2008767,0.22553564,0.46227545,0.41956366,0.16076338,0.63559255,0.32224624
0.087524717,0.29876342,0.074863292,0.13273576,0.12628738,0.14229506,0.10129256,0.32593271,0.29866706,0.32821438,0.56147823,0.16331491,0.39359397,0.59908046,0.27422553,0.17733948,0.41945752,0.48988376,0.4394004,0.40683908,0.17853558,0.31621691,0.36838347,0.44949046,0.85979491,0.1967078,0.23120811,0.47727932,0.44120034,0.15126067,0.65643891,0.32807723
0.083295427,0.29627066,0.072499836,0.13497733,0.12533649,0.14599436,0.10391104,0.32871928,0.31060566,0.34828509,0.55590327,0.16146987,0.373184,0.57626972,0.27446901,0.16514876,0.42199196,0.50731365,0.41870279,0.42568252,0.17335718,0.31095507,0.36622779,0.43408075,0.83280908,0.19337366,0.23744557,0.49269517,0.46417394,0.14290896,0.67378626,0.33410768
0.080016121,0.29281898,0.070435102,0.13662065,0.12476601,0.15016613,0.10653524,0.33117845,0.32330127,0.36827767,0.54879661,0.1609839,0.35126981,0.55578271,0.27453819,0.1536812,0.42787598,0.52063576,0.39914107,0.44510053,0.17019716,0.30613615,0.36278883,0.41673647,0.80114055,0.19067976,0.24400113,0.50832298,0.48777224,0.13599627,0.68639692,0.34051412
0.077863258,0.28846831,0.068662585,0.13749825,0.12468439,0.15476505,0.10895931,0.33356899,0.3360966,0.38752948,0.54066899,0.16190835,0.32894403,0.53838415,0.27481963,0.14306502,0.43543379,0.52928561,0.3800321,0.46443731,0.16904943,0.30191851,0.35858274,0.39808051,0.76621012,0.1883095,0.25065329,0.52393063,0.51118934,0.13083125,0.69321948,0.34736639
0.076680509,0.28354392,0.06726618,0.13763519,0.12505299,0.15965529,0.11101607,0.33624796,0.34804818,0.40532071,0.53194374,0.16422006,0.30689315,0.52473599,0.27557735,0.13342388,0.44310591,0.53279347,0.36119977,0.48324855,0.16994374,0.29838595,0.35386494,0.37859062,0.72897765,0.18586673,0.25728293,0.53874033,0.53371627,0.12741023,0.69365382,0.35457298
0.076660136,0.2782104,0.066207574,0.13693907,0.12602529,0.16471319,0.1126789,0.33941732,0.35836227,0.42096947,0.52298811,0.16778057,0.28550113,0.5149133,0.27693879,0.12493679,0.44940652,0.53188747,0.34286809,0.50150141,0.17255933,0.29562184,0.34871799,0.35875778,0.6904468,0.1830259,0.26378243,0.55190075,0.55471351,0.12576543,0.68775025,0.36193995
0.077586901,0.2726622,0.065570569,0.13542014,0.12761295,0.16988093,0.11392757,0.34333083,0.36593736,0.43399044,0.51410008,0.17232952,0.26507275,0.50918145,0.27891299,0.11765234,0.45328953,0.52709836,0.32550521,0.51936906,0.17669318,0.29358395,0.34313995,0.3390256,0.65142779,0.17974941,0.26996954,0.56312566,0.57349002,0.12587834,0.67563537,0.36921399
0.079563847,0.26688772,0.065285874,0.13318176,0.13005051,0.17508079,0.11485117,0.34794691,0.37028909,0.44388174,0.50553692,0.17749423,0.24601029,0.5077596,0.28143896,0.11159212,0.45451056,0.51897569,0.3097198,0.53684564,0.18216452,0.29214563,0.33713045,0.31967402,0.61276777,0.17622267,0.27562191,0.57267666,0.58926469,0.12772658,0.65750027,0.37592943
0.082441814,0.26087212,0.065429571,0.13022859,0.13331184,0.18023422,0.11553344,0.35335498,0.37116499,0.45063275,0.4976487,0.18297839,0.22870178,0.51115156,0.2843223,0.10677272,0.45333455,0.50805379,0.29608516,0.55372893,0.18878408,0.29110687,0.33071705,0.30090923,0.57548409,0.17267347,0.28046708,0.58074766,0.60156029,0.13116954,0.63372423,0.38147187
0.086273073,0.25442925,0.06593758,0.12675285,0.1376568,0.18521528,0.11603726,0.3594993,0.36815062,0.45381561,0.49054074,0.18868206,0.21339993,0.51912593,0.28714952,0.10318378,0.45013696,0.49514292,0.2850134,0.56950435,0.19617426,0.29025463,0.32403706,0.28283136,0.54019975,0.16936018,0.28415632,0.58718704,0.61024672,0.13589993,0.60485004,0.38552301
0.091019531,0.24747665,0.066863392,0.12290948,0.14299722,0.18994338,0.11644517,0.36630702,0.36191207,0.45380109,0.48445273,0.19464071,0.20026163,0.53145342,0.28943211,0.10078441,0.44511774,0.48068043,0.27667298,0.58330813,0.20408232,0.28939836,0.31722273,0.26546305,0.50729258,0.16664065,0.28663218,0.5917936,0.61523023,0.1416241,0.5715606,0.3880846
0.096683971,0.23965342,0.068168981,0.11886772,0.14958224,0.19434579,0.11676864,0.37371504,0.35258323,0.45016996,0.47927412,0.20093019,0.18944239,0.54771574,0.29068826,0.099550328,0.4386902,0.465092,0.27100911,0.59383359,0.21227013,0.28850508,0.31035716,0.24895623,0.47693327,0.16487034,0.28781618,0.59451624,0.61624604,0.14801281,0.53482262,0.38934993
0.10324943,0.23100508,0.069892814,0.11483027,0.15726672,0.19825959,0.11695873,0.38156527,0.34093172,0.44378893,0.47515872,0.20767221,0.1811265,0.567325,0.29052559,0.099517883,0.43175752,0.44893791,0.26804177,0.59950569,0.22048019,0.28759634,0.30351567,0.23366127,0.44910235,0.16435545,0.28745505,0.59529718,0.6131063,0.15468516,0.49587003,0.38965839
0.11060404,0.22134455,0.071998487,0.11092791,0.16628196,0.20172005,0.11696222,0.38989025,0.32762026,0.43466097,0.47184862,0.21497859,0.17543706,0.58895222,0.28864134,0.10075764,0.42548547,0.43282402,0.26778232,0.59913283,0.22851425,0.28655,0.29674393,0.21966234,0.42372809,0.16534937,0.28528617,0.59427645,0.60583711,0.16112547,0.45630755,0.38910989
0.11874716,0.21096201,0.074483886,0.10726925,0.1764013,0.20473183,0.1167123,0.39859095,0.31299614,0.42390432,0.46936283,0.22287642,0.17233409,0.61096728,0.28492376,0.10334183,0.42109673,0.4171718,0.27025026,0.59191045,0.23624915,0.28514147,0.2900666,0.20714528,0.4010884,0.16809477,0.28111852,0.59190018,0.59472477,0.16677689,0.41762634,0.38763654
0.12752572,0.19998153,0.077332918,0.10387602,0.18778174,0.20732137,0.11620945,0.40758134,0.29765785,0.41202227,0.46734413,0.23124251,0.17157511,0.63141678,0.27949626,0.10724869,0.4194722,0.40231301,0.2755335,0.57795252,0.24353758,0.2832008,0.28355646,0.19646394,0.38155719,0.17281807,0.27483795,0.58832855,0.58040503,0.17115519,0.38101259,0.38489899
0.13699115,0.18871062,0.080568416,0.10078058,0.20018307,0.20966067,0.11551776,0.41674001,0.28195095,0.39975739,0.46548799,0.23979828,0.17271976,0.64773254,0.27252745,0.11243479,0.42104629,0.38832609,0.2835087,0.55803591,0.25020434,0.28066219,0.2773025,0.1878219,0.36513181,0.17944579,0.26674773,0.58297121,0.56383011,0.17401741,0.34747891,0.38069622
0.14701455,0.17733544,0.084286494,0.097964622,0.21377155,0.21187197,0.11465969,0.42596834,0.26631689,0.38750137,0.46326111,0.24812668,0.17517229,0.65715675,0.26428271,0.11879157,0.42582094,0.37496519,0.29389602,0.53396326,0.2561822,0.27760526,0.27138844,0.1813525,0.35141351,0.1878809,0.25759112,0.57515562,0.5454519,0.17543848,0.31785748,0.37495773
0.15771879,0.16606762,0.088584031,0.095425431,0.22832568,0.21410949,0.11364647,0.43508858,0.25111728,0.37555759,0.45991369,0.25583964,0.17833804,0.65840256,0.25519811,0.12609782,0.43330316,0.36192852,0.30654659,0.50726189,0.26153299,0.27419293,0.26596651,0.17726592,0.33991924,0.19797683,0.24795303,0.56480775,0.52527139,0.17586704,0.29274953,0.36782329
0.1690255,0.15515353,0.093671962,0.093270747,0.24399787,0.2164784,0.11246116,0.44383233,0.23691908,0.36413103,0.4550865,0.26267256,0.18185735,0.65112954,0.24581996,0.13401984,0.44282035,0.34896716,0.32129853,0.47905139,0.26649134,0.27054321,0.26119263,0.1757345,0.33004214,0.20955304,0.23839113,0.55208468,0.50291542,0.17565283,0.27224346,0.35972739
0.18102473,0.14474243,0.099584751,0.09155554,0.26059548,0.21905134,0.11104674,0.45186042,0.22407791,0.35329497,0.44827306,0.26849753,0.18548062,0.63575735,0.23687074,0.14214663,0.45365174,0.33589994,0.33790152,0.45011012,0.27136916,0.26676863,0.25706481,0.17665895,0.32104031,0.22242101,0.22927983,0.53747655,0.47776118,0.17506385,0.2563535,0.35150721
0.1936568,0.13506744,0.10652208,0.090370584,0.27836924,0.22185315,0.10940583,0.45902179,0.21312328,0.34305528,0.43964896,0.27316045,0.18900655,0.61300825,0.22899082,0.15001397,0.46522868,0.32262556,0.35598607,0.42088384,0.27633784,0.26290711,0.25345869,0.18006004,0.31253799,0.23620408,0.22082946,0.52208979,0.44951557,0.17428908,0.24486595,0.34386595
0.20695885,0.12623555,0.11437258,0.089810243,0.29719281,0.22485444,0.10753235,0.46533164,0.20459045,0.33365123,0.42918686,0.27636877,0.1923365,0.58483029,0.22267289,0.15717823,0.47707269,0.30901836,0.37486893,0.39163895,0.28145168,0.258899,0.25014957,0.18610469,0.30436124,0.25041751,0.21324062,0.50712998,0.41879629,0.17345335,0.23731367,0.33742347
0.22088846,0.11845636,0.12330791,0.089854975,0.31731287,0.22808071,0.10545401,0.47091761,0.19865829,0.32545244,0.41729137,0.27781831,0.19549354,0.55286853,0.21831252,0.16328654,0.48835158,0.29481077,0.39365605,0.36263039,0.28665621,0.25461864,0.24686904,0.19434382,0.29665842,0.26446414,0.20659845,0.49337834,0.38682953,0.1726043,0.23299438,0.33267097
0.2354148,0.11180954,0.1331124,0.090598417,0.33844417,0.23156153,0.10324318,0.47612234,0.19614681,0.31925664,0.40412756,0.27742015,0.19855977,0.5187942,0.21617825,0.16810324,0.49816025,0.27993605,0.41134795,0.33427313,0.29185303,0.24992709,0.24342408,0.20455381,0.2897845,0.27782873,0.20103477,0.48099209,0.35479605,0.17173444,0.23103962,0.32965324
0.25055247,0.10642795,0.1438945,0.092063513,0.36059857,0.23533017,0.10095337,0.48111623,0.19707635,0.31534069,0.39014473,0.27537311,0.20164569,0.48419942,0.2164557,0.17150051,0.5058708,0.26458335,0.42689903,0.30720477,0.29694314,0.24472839,0.23972807,0.21656237,0.28411477,0.29028693,0.19679025,0.46966324,0.32353501,0.17078071,0.23046306,0.32832699
0.26624432,0.10236342,0.15538784,0.094209312,0.3833623,0.23948363,0.098653933,0.48606099,0.20178981,0.31467087,0.37574157,0.27198523,0.20480166,0.45034772,0.218905,0.17338493,0.51103251,0.24909926,0.43918947,0.28210868,0.30171631,0.23904752,0.23575289,0.22996822,0.28003468,0.30179107,0.19403377,0.45873872,0.29372301,0.16965667,0.23022176,0.32858238
0.28248623,0.099676332,0.16754374,0.097083965,0.40646509,0.24401892,0.096403889,0.49101124,0.21072777,0.31709631,0.361338,0.26757472,0.20801335,0.41798756,0.22324031,0.17363909,0.51328491,0.2339131,0.44684171,0.25931475,0.30577348,0.23291842,0.23145433,0.24449165,0.27797388,0.31246072,0.19275899,0.44737642,0.26599545,0.16843233,0.22958612,0.33021802
0.29908666,0.098475073,0.18007332,0.10054305,0.42944277,0.24891728,0.094274145,0.49597188,0.22357055,0.32362022,0.34724797,0.26255259,0.2112864,0.38759313,0.22902287,0.17212895,0.51266498,0.21937417,0.44913464,0.23899251,0.30877265,0.22644963,0.22688699,0.25993951,0.27794029,0.32258695,0.19305072,0.43510474,0.24093829,0.1672843,0.22829973,0.33292845
0.31587363,0.098838456,0.19278456,0.10450153,0.45168592,0.25420674,0.092313191,0.50091213,0.24082593,0.33379067,0.33377137,0.25728792,0.21463335,0.35959662,0.23573828,0.16886063,0.50955355,0.20577622,0.44612518,0.22118546,0.31039133,0.2198995,0.22218865,0.27595824,0.27993725,0.33253505,0.19507081,0.42209746,0.21896409,0.16636874,0.22648114,0.33640428
0.3326184,0.10095814,0.20549412,0.10889229,0.47278993,0.25976153,0.090555483,0.50564516,0.26210826,0.34832583,0.32108075,0.25214823,0.21807559,0.33408448,0.24284852,0.16407756,0.50455985,0.19338228,0.43840502,0.20609417,0.31038573,0.21352975,0.21766028,0.29204805,0.28394411,0.34261622,0.19865214,0.40879017,0.20033865,0.16576219,0.22435882,0.3401963
0.34921089,0.10482236,0.21818199,0.11356216,0.49191064,0.26547065,0.089079295,0.5098742,0.28725465,0.36675093,0.30928295,0.24755985,0.22166511,0.31103547,0.24969606,0.15819426,0.49843331,0.18237254,0.42690567,0.19380109,0.30871597,0.20756888,0.21377614,0.30769543,0.28991044,0.35311282,0.20369039,0.39569058,0.1851525,0.16547864,0.22211199,0.34371376
0.36572058,0.11063172,0.23099591,0.11840878,0.5092307,0.27121959,0.087920108,0.51315634,0.31632749,0.38929868,0.29829969,0.24388926,0.22541482,0.29040063,0.25562025,0.15160214,0.49177969,0.1727013,0.41269126,0.18434158,0.30563368,0.2022164,0.21099798,0.32218511,0.29772948,0.36410875,0.21011036,0.38333293,0.17342382,0.1655456,0.2198212,0.34657837
0.38229767,0.11826013,0.24415013,0.12328875,0.52449275,0.27692637,0.087196373,0.51529978,0.3485417,0.41540154,0.28806267,0.24131213,0.2292418,0.27216839,0.26000205,0.14463251,0.48481999,0.16429462,0.39673216,0.17772704,0.30144555,0.19754241,0.20966874,0.3351035,0.30741108,0.37552814,0.21758752,0.37232563,0.1651283,0.16598453,0.21747048,0.34862153
0.39910017,0.12791577,0.25788114,0.12807967,0.53838115,0.28258919,0.087118259,0.51636577,0.38378681,0.44474467,0.27836962,0.23983,0.23300931,0.25617367,0.26247186,0.13756752,0.47729739,0.15704442,0.37988148,0.17387594,0.29653025,0.19353165,0.21006205,0.34597798,0.31890814,0.38716375,0.22595806,0.36330529,0.16009344,0.16675184,0.21509639,0.34981437
0.41628597,0.13934858,0.27240034,0.13264857,0.55111891,0.28827789,0.087789212,0.51639467,0.42136955,0.47683211,0.26916822,0.23930752,0.23643639,0.24207282,0.26304243,0.1306152,0.46866214,0.15069116,0.36266724,0.17277004,0.29138499,0.19010176,0.21240921,0.35416122,0.33178516,0.39873609,0.23518246,0.35671906,0.1579987,0.1677433,0.21278292,0.35024893
0.43403819,0.15274827,0.28808457,0.13692645,0.56339467,0.29407246,0.089419313,0.51556866,0.46071051,0.51127362,0.26040505,0.23943523,0.2390271,0.22963592,0.2618811,0.12394697,0.45820799,0.14497092,0.34546326,0.17394211,0.28637391,0.18715068,0.21676478,0.35956697,0.34539108,0.41000885,0.24520171,0.35273146,0.15842998,0.16878267,0.21065505,0.34985768
0.45249791,0.16776846,0.305175,0.14092904,0.57571595,0.30004959,0.092158156,0.51368572,0.50140857,0.54784788,0.25225266,0.23986601,0.24026716,0.21877134,0.25919447,0.1177167,0.44550058,0.13966982,0.32854838,0.17708494,0.28172151,0.18457197,0.22292507,0.3624629,0.35900019,0.42084885,0.2559907,0.35119574,0.16102336,0.16965996,0.2090389,0.34839324
0.47195686,0.18457333,0.32434896,0.14473387,0.58862471,0.3063127,0.096027026,0.51074774,0.54280625,0.58599727,0.24476259,0.24041478,0.23991577,0.20948287,0.25511088,0.11207299,0.43073924,0.13462917,0.31213911,0.18198087,0.27757839,0.18239516,0.23068788,0.36299689,0.37171977,0.43104552,0.26761775,0.35165242,0.16560283,0.17017939,0.20840221,0.3452842
0.49259179,0.20273543,0.34585368,0.14854882,0.60292107,0.31290493,0.10121594,0.50680858,0.58462834,0.62527681,0.23826036,0.24103335,0.23817475,0.2016483,0.24984978,0.10721479,0.41458311,0.1297969,0.29639515,0.18856971,0.273884,0.18077744,0.23977815,0.36132789,0.38273496,0.44011028,0.2801928,0.35346055,0.17188453,0.17026546,0.20926709,0.34008791
0.51483295,0.22234475,0.3707106,0.15262674,0.61873641,0.31992082,0.10768543,0.50231383,0.62652046,0.66491377,0.23276155,0.24164843,0.23553373,0.19527354,0.24379051,0.10342643,0.39767591,0.12526519,0.28129247,0.19681628,0.27046881,0.18000972,0.24981002,0.35786192,0.39127263,0.44726592,0.29367504,0.35602716,0.17958578,0.16992806,0.21214137,0.3325926
0.53866602,0.24296626,0.39883162,0.157289,0.63669217,0.32744206,0.11542449,0.49796655,0.66807099,0.70406096,0.22866208,0.24210039,0.23247859,0.19043555,0.23733251,0.10103539,0.38061126,0.12117825,0.26687604,0.2066863,0.26719761,0.18019106,0.26018085,0.35293449,0.39661047,0.45149332,0.30799162,0.3589568,0.18840757,0.16919392,0.21742631,0.32296729
0.56485819,0.26461743,0.43137844,0.16270712,0.656383,0.33548226,0.12465568,0.49472407,0.7083807,0.74203115,0.22581236,0.24220413,0.22947271,0.18744483,0.23077554,0.10041966,0.36376329,0.11776579,0.25326258,0.21831744,0.26417395,0.18140979,0.27026088,0.34706097,0.39788097,0.4516515,0.32298841,0.36210829,0.19806988,0.16804974,0.22547166,0.31172693
0.59343092,0.28687584,0.46775468,0.16914476,0.67807615,0.34413906,0.13520853,0.49306738,0.74660597,0.77765882,0.22457435,0.24182958,0.22702199,0.18640178,0.22431258,0.10184187,0.34718417,0.11515005,0.2405763,0.23178507,0.26169601,0.18376607,0.2792976,0.34113934,0.39542471,0.44765763,0.33827905,0.36548713,0.20828284,0.16648683,0.23635442,0.2997545
0.62528359,0.30957329,0.50881003,0.17669907,0.70117717,0.35338531,0.14710838,0.49359418,0.78136152,0.81048615,0.22472463,0.24101602,0.22571746,0.18756146,0.21806712,0.10560083,0.33063504,0.11346936,0.22892309,0.24716882,0.26012182,0.18748416,0.28626067,0.33586196,0.38974684,0.439756,0.35354074,0.36924729,0.21882252,0.16451889,0.25026174,0.28764956
0.66030138,0.33236226,0.55383383,0.18537118,0.7257035,0.3631508,0.16036709,0.49654835,0.81087117,0.839277,0.22661636,0.24000238,0.22613267,0.19122828,0.21216632,0.11193768,0.31364322,0.11285028,0.2184875,0.26446419,0.25976576,0.19256015,0.29052125,0.33192997,0.38156101,0.42835891,0.36829015,0.37356747,0.22958405,0.1622565,0.26736137,0.27595023
0.69877812,0.35488332,0.60321792,0.19536781,0.75103382,0.37348194,0.17472575,0.50205723,0.83407102,0.86366376,0.23003038,0.23912089,0.22878081,0.19785766,0.20677159,0.12103822,0.29572531,0.11341782,0.20931329,0.2836658,0.26087969,0.19899678,0.2918557,0.32976575,0.37188538,0.41397317,0.38193717,0.37841726,0.24047517,0.15983408,0.28779184,0.26522547
0.74021362,0.37686181,0.65628324,0.20655909,0.77677663,0.3843107,0.1900734,0.5105593,0.84852498,0.8823656,0.2351557,0.23874689,0.23402342,0.20756566,0.20209653,0.13306261,0.27678151,0.11510985,0.20140753,0.30472276,0.26339146,0.20671554,0.29037539,0.32958113,0.36194647,0.39734771,0.3939984,0.38368571,0.25135884,0.15741898,0.3117791,0.25576297
0.78411887,0.39797464,0.71295002,0.21891366,0.8022721,0.39561793,0.20612645,0.5217099,0.8546453,0.89497893,0.24162691,0.23922193,0.24206038,0.22046702,0.19837007,0.14815888,0.25719263,0.1178891,0.19464931,0.32746752,0.26723635,0.2155679,0.28629622,0.33165958,0.35268281,0.37951653,0.40391176,0.38934992,0.26204478,0.1551987,0.33954263,0.24771517
0.82956786,0.41829745,0.77244569,0.23230145,0.82673717,0.40755417,0.22255166,0.53581524,0.85247392,0.90119688,0.2493363,0.24086971,0.25300212,0.23667862,0.19571166,0.16642906,0.23765254,0.12170724,0.18875932,0.35170679,0.27241293,0.2251866,0.28007338,0.33625949,0.34495264,0.36148528,0.41129402,0.3955135,0.27226004,0.15334916,0.3711094,0.24111167
0.87548054,0.43783314,0.83426506,0.24631566,0.84973803,0.42012019,0.23902312,0.55242313,0.84292997,0.90139529,0.25783763,0.24398914,0.2668105,0.25637203,0.19418809,0.1878611,0.21876799,0.12641797,0.18337461,0.37694363,0.27904269,0.23518758,0.27218543,0.34327545,0.33941816,0.34409096,0.41622975,0.40228547,0.28174499,0.15193497,0.40649636,0.2358203
0.92063889,0.4567357,0.89770852,0.26059172,0.87002091,0.43335423,0.25520585,0.5712589,0.82818964,0.89656853,0.26686866,0.24884927,0.28317621,0.27942819,0.19377975,0.21235947,0.20097745,0.13180816,0.17826346,0.40268638,0.28722542,0.24504594,0.26310664,0.35266608,0.33628663,0.32797932,0.41872472,0.4095952,0.29026821,0.15099517,0.44545936,0.23146185
0.96425308,0.47505516,0.9621097,0.27457848,0.88729393,0.44743723,0.27098696,0.59179954,0.80927567,0.88747224,0.27614766,0.25565511,0.30164114,0.30555465,0.19437517,0.23965125,0.18462847,0.13773071,0.17348118,0.42831051,0.29706508,0.25405188,0.25338777,0.36445456,0.33560841,0.31365766,0.41882829,0.41702059,0.29754665,0.15051986,0.48795304,0.22766079
1.0053531,0.49302949,1.0267603,0.2877816,0.89994613,0.46221545,0.286441,0.61329911,0.78802908,0.87526737,0.28562309,0.26458372,0.32185255,0.33457593,0.1958667,0.26946223,0.16996201,0.1440925,0.16930927,0.45299479,0.30863751,0.26169207,0.24369292,0.37801661,0.33734628,0.30154919,0.41706673,0.42401383,0.30325892,0.15043206,0.53409068,0.22404126
1.0439102,0.51095138,1.0909346,0.29959692,0.90809487,0.47764628,0.30190218,0.63516872,0.76554439,0.8602025,0.29536435,0.2758029,0.3435559,0.36628338,0.1982323,0.30145454,0.15712198,0.15090708,0.16609342,0.47577811,0.32172378,0.26762364,0.2345311,0.39283538,0.34112247,0.29167756,0.41371565,0.43006616,0.30726889,0.15056941,0.58383601,0.22032977
1.0790492,0.52909775,1.1535185,0.30995885,0.90999351,0.49370763,0.31768429,0.65686973,0.74270948,0.84292686,0.30548912,0.2893005,0.36635558,0.4001976,0.20162059,0.33521151,0.14617583,0.15832889,0.16414141,0.4960254,0.33605875,0.27157818,0.22621197,0.40820808,0.34646835,0.28401418,0.40899578,0.43493134,0.30960069,0.1507268,0.63681062,0.21645142
1.111031,0.54770295,1.2135614,0.31896475,0.90623316,0.51023523,0.33417841,0.6781289,0.72010719,0.82320143,0.31607451,0.3048068,0.38960441,0.43535376,0.20628835,0.37037486,0.1371598,0.166571,0.16380733,0.51339236,0.3515178,0.27348734,0.21890379,0.42320975,0.35286025,0.27837275,0.40349422,0.43888755,0.3103308,0.15070863,0.69217895,0.21237025
1.1389183,0.56696374,1.2690437,0.32673177,0.89500851,0.52722883,0.35164107,0.69884388,0.69826998,0.80168501,0.32712367,0.3219812,0.4123894,0.47061974,0.2125346,0.40679767,0.1300896,0.17591985,0.16552289,0.52806171,0.3680908,0.27348097,0.21272872,0.43716901,0.35957596,0.27438833,0.39788268,0.44264021,0.30958498,0.15043201,0.74868471,0.20799603
1.1625692,0.58721391,1.3191113,0.33357643,0.87735295,0.54466907,0.37060087,0.71900322,0.67765088,0.77845738,0.33863457,0.34039515,0.43358392,0.50453004,0.22072908,0.44448507,0.12495846,0.18647191,0.16959459,0.54074451,0.38556458,0.27165223,0.20756337,0.44956731,0.36569212,0.27156185,0.39298179,0.44709191,0.30767925,0.1499752,0.80499112,0.20331569
1.1809244,0.60888171,1.3606356,0.33958491,0.85205313,0.5623862,0.39173531,0.73839865,0.65853311,0.75421928,0.35063087,0.35943621,0.45205312,0.53487401,0.23136966,0.48333469,0.12179312,0.19831428,0.17639894,0.55266806,0.40369421,0.26803032,0.20326177,0.46004409,0.37046374,0.2691111,0.38958214,0.45309994,0.30534026,0.14958656,0.86008073,0.19846694
1.1934084,0.63229439,1.3934483,0.34487759,0.82104643,0.58020649,0.41561687,0.75687267,0.6413772,0.72921311,0.36329227,0.37840635,0.46700413,0.55963956,0.24469543,0.52320167,0.12066601,0.21154734,0.18630231,0.56479612,0.42222219,0.26277686,0.19959261,0.46864689,0.3732531,0.26627017,0.38814613,0.46128589,0.30361691,0.14951085,0.91324328,0.193624
1.1993729,0.6577122,1.413861,0.34954856,0.78429383,0.59788211,0.44338815,0.77387242,0.62624584,0.70374086,0.37674293,0.39680016,0.47819462,0.5770949,0.26105955,0.56381165,0.12166381,0.22634008,0.19964401,0.57773371,0.44108441,0.25621097,0.19628565,0.47526133,0.37319073,0.26256324,0.38904067,0.47198718,0.30376974,0.14990602,0.96381895,0.18898145
1.1983925,0.68500986,1.4225261,0.35348248,0.74384258,0.61520967,0.47545233,0.78901568,0.61364805,0.67789433,0.39125941,0.41449276,0.48579132,0.58643393,0.28081399,0.60464348,0.12491512,0.24250632,0.21682794,0.59177368,0.46046715,0.24876362,0.19305213,0.47923635,0.36983934,0.25777587,0.39244994,0.48533253,0.30684401,0.15089205,1.0112492,0.18469845
1.1910623,0.71414683,1.4166499,0.35664073,0.70029496,0.6318804,0.51217908,0.80180091,0.60361642,0.65178056,0.40689962,0.43174238,0.49006182,0.58757066,0.30425317,0.64488501,0.13050672,0.25991178,0.23820007,0.6070642,0.48070517,0.24101132,0.18984565,0.4804572,0.36283086,0.25178877,0.39799786,0.50195348,0.31363235,0.15263901,1.0551331,0.18087394
1.1772457,0.74472227,1.3979597,0.35896262,0.65536396,0.64760441,0.55486001,0.81147803,0.59585481,0.62545163,0.42394261,0.44894194,0.49142928,0.58203725,0.33162646,0.68345766,0.13840082,0.27841031,0.2639079,0.62356664,0.50210329,0.23353616,0.18687472,0.4791061,0.35201869,0.24470638,0.4053231,0.52288473,0.32481857,0.15529846,1.0952045,0.17753923
1.1583062,0.77648368,1.3656722,0.36029317,0.61003852,0.66215187,0.60328479,0.81769125,0.59026028,0.59894244,0.44223331,0.46644711,0.4909511,0.57111959,0.3631166,0.71913978,0.14851976,0.29772305,0.29419965,0.64145468,0.52488546,0.22670901,0.18455779,0.47574113,0.3376334,0.23685217,0.41392545,0.54895581,0.34091049,0.15905517,1.1313225,0.17465762
1.1343887,0.80885001,1.3218336,0.36086951,0.56531869,0.67493401,0.65796714,0.81883413,0.58600065,0.57225439,0.46190546,0.48443526,0.49022998,0.55616521,0.39850839,0.75070548,0.16075883,0.31736757,0.3292395,0.66123006,0.54900893,0.22079912,0.18336716,0.47135351,0.32062658,0.2284113,0.42283842,0.58050992,0.36212181,0.16409312,1.1632602,0.17204184
1.1072277,0.84158227,1.2675105,0.36089566,0.52216434,0.68571569,0.71927999,0.81478967,0.58250947,0.54535144,0.48265278,0.50275449,0.4910029,0.53857306,0.43756189,0.777357,0.17497772,0.3368757,0.36907382,0.6836281,0.57432036,0.21610519,0.18362351,0.46662237,0.30185548,0.2194584,0.4311915,0.61732706,0.38831801,0.17063644,1.1906667,0.16954355
1.0773249,0.87446027,1.2054411,0.36082455,0.48085384,0.69434311,0.78625532,0.80456799,0.57884986,0.5182485,0.50452992,0.5208429,0.49481807,0.52001746,0.48000225,0.79929669,0.19123538,0.35564969,0.41376315,0.70933354,0.60051304,0.21271457,0.18558442,0.4619493,0.28216836,0.21008532,0.43791693,0.65882268,0.41902167,0.17869533,1.2124734,0.16707457
1.0459724,0.90725724,1.137834,0.36112125,0.44216957,0.70012769,0.85866396,0.78816927,0.57419168,0.4910467,0.52722369,0.53798164,0.50293603,0.50212736,0.5257394,0.81753814,0.20994457,0.37296121,0.46307148,0.73855436,0.62718576,0.21063135,0.18947715,0.45753704,0.26240854,0.20051638,0.4420922,0.70434258,0.45360459,0.18824397,1.2269573,0.16464654
1.013603,0.93966591,1.0667393,0.36220684,0.40592363,0.70313245,0.93552295,0.76625182,0.56746171,0.4639146,0.55085306,0.55378828,0.51621159,0.48629414,0.57510453,0.83350729,0.23162665,0.38840105,0.51639891,0.77137658,0.65388886,0.20978482,0.19550491,0.45334716,0.24315764,0.19113616,0.44304818,0.75292012,0.49101951,0.19926001,1.2329324,0.1623592
0.9807449,0.97095158,0.99384852,0.36428341,0.37266324,0.70317805,1.0156136,0.7390459,0.55836357,0.43693913,0.57523254,0.5684385,0.53520495,0.47370834,0.62837954,0.84826711,0.25669705,0.40187897,0.57305713,0.80751865,0.68011788,0.21015784,0.2035279,0.44922869,0.22477842,0.1823571,0.44007473,0.80286806,0.52999868,0.21167871,1.2304477,0.16040575
0.94763452,1.000516,0.92068247,0.36740338,0.34189284,0.69939729,1.0979761,0.70808716,0.54650874,0.41011863,0.60047989,0.58242937,0.56023637,0.46533443,0.68552722,0.8621915,0.28540051,0.41345124,0.63237375,0.84639108,0.70525864,0.21154748,0.21348419,0.44489846,0.20753045,0.17452353,0.43300813,0.85193702,0.56877224,0.2253289,1.2203237,0.15914203
0.91429909,1.0267017,0.84845355,0.37188372,0.31393537,0.69234929,1.1809397,0.67385023,0.53169493,0.38360122,0.6263596,0.59627093,0.59121265,0.46151825,0.74628056,0.87513535,0.31772457,0.42341576,0.69373444,0.88672008,0.72887882,0.21381087,0.2253529,0.44005444,0.19142032,0.16786776,0.42242201,0.89809397,0.60503912,0.23983708,1.2035412,0.15912866
0.8805663,1.0491024,0.77842469,0.37776834,0.28821884,0.68194145,1.2629272,0.63748038,0.51429822,0.35753434,0.65294042,0.61073405,0.6274935,0.46250786,0.81015487,0.88650932,0.35336361,0.43190487,0.7564715,0.92685601,0.75075706,0.21676673,0.23935868,0.43443917,0.17640989,0.16256011,0.40868341,0.93961547,0.63603638,0.25503373,1.1810698,0.16076652
0.84611713,1.0655026,0.71111766,0.38523826,0.26498943,0.66789058,1.3413083,0.59963944,0.49430689,0.33219074,0.68019377,0.62669246,0.6678852,0.46830013,0.87645797,0.8956945,0.39178545,0.43892418,0.81933409,0.96526355,0.77066636,0.22013366,0.2554935,0.4279117,0.16247727,0.15865372,0.39211584,0.97433253,0.65919727,0.27095772,1.1544075,0.16446604
0.81073543,1.0760634,0.64777813,0.39469584,0.24374506,0.65105987,1.4141574,0.5611465,0.4724482,0.30763367,0.70826419,0.64463535,0.71074227,0.47883284,0.94417365,0.90240629,0.43224817,0.4442866,0.88043333,1.0010275,0.78802736,0.22360531,0.2738025,0.42066575,0.14966723,0.15605347,0.37360901,1.0002412,0.67342942,0.28787128,1.1247999,0.17068627
0.7740047,1.079108,0.58813895,0.40622433,0.22471848,0.63161037,1.4792372,0.52290833,0.44922353,0.28396609,0.73698109,0.66456269,0.7539105,0.49321605,1.0117664,0.90683634,0.47406835,0.44796753,0.93738741,1.0337659,0.80234038,0.22710457,0.29423097,0.41285666,0.13785655,0.15475726,0.35380704,1.0166333,0.67985888,0.30613562,1.092746,0.17983691
0.73583635,1.0757316,0.53329048,0.42023084,0.20748898,0.60969804,1.5338814,0.48594478,0.42535211,0.26118137,0.76615947,0.68605858,0.79454595,0.51063642,1.0776918,0.90973671,0.51694369,0.44980162,0.98789344,1.063728,0.81285736,0.230808,0.31670289,0.40446902,0.12697211,0.15485272,0.33332875,1.0239851,0.68116476,0.32614189,1.0581375,0.19203747
0.69553139,1.0651706,0.48248007,0.4368466,0.1922561,0.58599063,1.5775023,0.4507256,0.4015818,0.23930686,0.79540131,0.70836855,0.82944733,0.52997958,1.1403606,0.91220005,0.56063513,0.44952533,1.0301224,1.0905984,0.81892624,0.23523406,0.34095884,0.3952793,0.11694954,0.15650125,0.31279811,1.0233122,0.67993647,0.34829611,1.0203476,0.20746863
0.6532835,1.0488563,0.43638685,0.45583499,0.17868212,0.56070486,1.6077541,0.41781819,0.37850449,0.21836905,0.82422292,0.73042589,0.85651441,0.54966214,1.1980885,0.9157546,0.60467067,0.44668154,1.0626701,1.113611,0.8201556,0.24093438,0.36676813,0.38495693,0.10775556,0.16004534,0.29267893,1.016303,0.67851734,0.37294205,0.9786142,0.22638313
0.60907738,1.0268633,0.39419166,0.47718806,0.16702885,0.53417578,1.6233349,0.38750154,0.35642823,0.19832662,0.85205218,0.75124924,0.87578963,0.56757813,1.2488523,0.92191971,0.64838502,0.44117146,1.0854041,1.132056,0.81762505,0.24850526,0.39395587,0.37309945,0.099272004,0.1656516,0.27346516,1.0045097,0.67881506,0.40044294,0.93272642,0.24872366
0.56382759,1.0004415,0.35624592,0.50022825,0.15700735,0.50685149,1.6244591,0.35978164,0.33548044,0.17928219,0.87826727,0.77017288,0.88907789,0.58190681,1.2900367,0.9317927,0.69108526,0.4328812,1.0979713,1.145891,0.81232994,0.25853247,0.42247088,0.35913164,0.091476565,0.1735284,0.25561299,0.98857373,0.68215195,0.43055501,0.88327569,0.274241
0.5182069,0.96970096,0.32208872,0.52441811,0.14881664,0.47901541,1.6096485,0.33502236,0.31577989,0.16116943,0.90221831,0.7864093,0.89897967,0.5918228,1.3194264,0.94606757,0.73201116,0.42200279,1.0994084,1.1559242,0.8051064,0.27151618,0.45240423,0.34321115,0.084384109,0.18381627,0.23947434,0.96854699,0.68934203,0.46317864,0.83143881,0.30288144
0.47296063,0.9352116,0.29201289,0.54920858,0.14210821,0.45107992,1.5814904,0.31270818,0.29711821,0.14417723,0.92321799,0.79904698,0.90776741,0.59777075,1.3351366,0.96519177,0.77061872,0.40924662,1.0885073,1.1626142,0.79679775,0.28755845,0.48376926,0.32568303,0.07799677,0.19655631,0.22547189,0.94460601,0.70098506,0.49834732,0.77829576,0.3350186
0.42869696,0.89695736,0.26574891,0.57388291,0.13698106,0.42340017,1.5418511,0.29287619,0.27955954,0.12817448,0.94050306,0.80720055,0.91684263,0.60154345,1.3365269,0.98920708,0.80719166,0.39557901,1.0644326,1.1659663,0.78811487,0.30683627,0.51653653,0.307121,0.072249248,0.21174529,0.21401528,0.91740621,0.71705335,0.53625511,0.72469247,0.37096564
0.38600139,0.8555286,0.24324473,0.59782557,0.13306883,0.39639813,1.4909179,0.27494732,0.26309844,0.113412,0.95355451,0.81017657,0.92700931,0.60483312,1.324085,1.0178468,0.84249166,0.38167834,1.0272233,1.1655463,0.7794851,0.3295445,0.55050963,0.2883321,0.067133627,0.22920695,0.20499713,0.88794718,0.73686734,0.57696901,0.67134843,0.41115052
0.34526739,0.81149324,0.22421592,0.62053324,0.13033953,0.37032188,1.4311476,0.25848517,0.24772127,0.099724353,0.96138928,0.80765191,0.93904447,0.60908061,1.2986198,1.051076,0.87741959,0.36802683,0.97968473,1.1613699,0.77128989,0.35564601,0.58521131,0.26988074,0.062686045,0.24864588,0.19836377,0.85655971,0.75915307,0.62012604,0.61894484,0.45614405
0.30700263,0.76563073,0.20825928,0.64173391,0.12841505,0.34531496,1.3632357,0.24304104,0.2335004,0.087414338,0.96370993,0.79938422,0.95332138,0.61566064,1.2618604,1.0895786,0.91240176,0.35492286,0.92471796,1.1538329,0.76412915,0.38479027,0.61983098,0.25222043,0.058919402,0.26977115,0.19417918,0.82309802,0.78215049,0.66515076,0.56788637,0.50696366
0.27126175,0.71862901,0.19503971,0.66073366,0.12719165,0.3217372,1.2883059,0.22825783,0.22016577,0.076382381,0.96004748,0.78570398,0.96964688,0.62563941,1.215455,1.1346011,0.9470784,0.34253758,0.86480538,1.1434264,0.7588924,0.41674777,0.65333095,0.23583785,0.055809212,0.29230539,0.19199724,0.78779608,0.80413126,0.71127198,0.51818949,0.56383153
0.23867391,0.67094628,0.18395198,0.67714213,0.12644468,0.29952345,1.2087182,0.21427792,0.20773462,0.066845242,0.95148419,0.76705542,0.98696495,0.63946647,1.1606127,1.1872637,0.98030711,0.33097786,0.80211208,1.1305048,0.75658778,0.45127041,0.68445784,0.22104572,0.05333773,0.31590411,0.19158134,0.75115863,0.82371972,0.75784702,0.47008469,0.62709404
0.20894588,0.62296607,0.17478625,0.69070225,0.12616644,0.27871625,1.1260142,0.20127551,0.1962566,0.058717137,0.93835788,0.74420348,1.0033862,0.65748287,1.0988414,1.2479334,1.0106337,0.32032983,0.73881031,1.1150899,0.75835081,0.4878929,0.71158269,0.20815342,0.051520618,0.34014225,0.19284358,0.71322057,0.84059991,0.80474044,0.42452244,0.69707584
0.18283993,0.57510101,0.16711042,0.70049613,0.12626141,0.25967664,1.0419677,0.18964049,0.18576986,0.05211066,0.92185937,0.71840636,1.0166874,0.67968962,1.0319815,1.3160031,1.0368572,0.31051108,0.67716393,1.0974605,0.76454271,0.52637176,0.73351268,0.19766348,0.050310233,0.36467236,0.19556148,0.67378762,0.85648215,0.85230827,0.38253498,0.77442125
0.15978196,0.52792108,0.16101602,0.70649256,0.12679591,0.24211532,0.95780007,0.179657,0.17655131,0.047030518,0.90215496,0.69107392,1.0241293,0.70557933,0.96204445,1.3897808,1.058002,0.30136828,0.61878011,1.0777279,0.77516408,0.56683237,0.74917169,0.18951786,0.049682618,0.38938882,0.199574,0.6332668,0.87415884,0.90111712,0.34493368,0.85816581
0.14030343,0.48219829,0.15618769,0.70787972,0.12775068,0.22605367,0.87465834,0.17141157,0.16849551,0.043538221,0.88007958,0.66333258,1.022709,0.73358774,0.8916279,1.4663793,1.0731524,0.29270112,0.56476631,1.0558156,0.78989052,0.60972478,0.7578366,0.18379702,0.049627607,0.41432932,0.20492393,0.59288787,0.89624267,0.95153181,0.31241137,0.94748729
0.1239456,0.4385016,0.15276428,0.7033042,0.12921855,0.21166882,0.79357758,0.16532445,0.16169187,0.041763613,0.85531711,0.63595082,1.011093,0.76200377,0.82294504,1.5420282,1.0823863,0.28420616,0.5158803,1.0313288,0.80816518,0.65524615,0.75899219,0.18075178,0.050169462,0.43965352,0.21179411,0.55387992,0.92482889,1.0033786,0.28558425,1.0411233
0.110977,0.39760909,0.15036229,0.69233652,0.13114909,0.19868653,0.71545905,0.16125983,0.1561178,0.041678259,0.82824983,0.6092693,0.98982241,0.7890006,0.7577125,1.6128532,1.0871005,0.2754494,0.47251913,1.0036981,0.82839007,0.70332491,0.75316285,0.18038997,0.051214383,0.46565498,0.22029411,0.51694542,0.96130706,1.0559697,0.26485365,1.1373297
0.10114618,0.35961395,0.14897646,0.67388261,0.13356114,0.18718057,0.64169921,0.1596535,0.1515829,0.043520699,0.79833843,0.58304074,0.96046666,0.8123964,0.69719692,1.6752527,1.0891089,0.26611002,0.43472117,0.97297455,0.84905638,0.75389244,0.7412599,0.18268113,0.052701156,0.49267437,0.23066617,0.48229796,1.0064538,1.1084743,0.25037147,1.2339391
0.094449159,0.32514158,0.14821016,0.64859685,0.13630205,0.17727085,0.57241894,0.16051407,0.1481263,0.047158628,0.76622183,0.55646985,0.92457998,0.83040468,0.64226809,1.7261753,1.0896152,0.25598107,0.4023041,0.93933115,0.86841916,0.80689925,0.72385148,0.1877314,0.054567877,0.52119694,0.24333774,0.44978628,1.0604591,1.1598475,0.24225269,1.3292966
0.090809828,0.29380083,0.14787447,0.61794775,0.1392554,0.16874068,0.50823996,0.16399829,0.14556977,0.052994385,0.73165401,0.52865825,0.88317687,0.84188246,0.59387956,1.7633742,1.0892774,0.24491794,0.3744175,0.90310934,0.88418083,0.86167342,0.70139423,0.19555948,0.056744087,0.55191124,0.25827209,0.41894753,1.1232653,1.2089724,0.24033851,1.4218178
0.090014539,0.26605506,0.14770368,0.58288845,0.14222367,0.16168881,0.44980407,0.17049013,0.14390361,0.06078102,0.69537915,0.49897784,0.83693601,0.84689655,0.55261769,1.7848424,1.0881057,0.23305716,0.35038941,0.86491562,0.89453155,0.91739352,0.67465645,0.20578694,0.059109499,0.58562153,0.27558012,0.38934756,1.1944955,1.255659,0.24430058,1.5092813
0.092180359,0.24124816,0.14759711,0.54555037,0.14503252,0.15612865,0.39681337,0.17986705,0.14312436,0.071074862,0.65750843,0.46709191,0.78661605,0.8464484,0.51909017,1.7883242,1.0853712,0.22066335,0.32946579,0.82579789,0.89827591,0.9729232,0.64472618,0.21812391,0.061564578,0.62315472,0.29553605,0.36078097,1.2726281,1.3003653,0.2537365,1.5895002
0.096929271,0.21988828,0.14757053,0.50733862,0.14757424,0.15187556,0.34981624,0.19286872,0.14308335,0.083578218,0.61856025,0.43299511,0.73315124,0.84240453,0.4936078,1.771484,1.0798032,0.20808396,0.31084046,0.78679887,0.89504073,1.0263443,0.61221436,0.23234389,0.06400376,0.66525972,0.31795498,0.3332228,1.3553102,1.3431021,0.26802477,1.6598699
0.10462212,0.20130986,0.14774523,0.46965567,0.14973053,0.1490544,0.30873549,0.20929902,0.14378654,0.098915925,0.57868263,0.39732314,0.67775539,0.83602435,0.47619876,1.7331269,1.0693293,0.19567688,0.29380834,0.74856314,0.88545857,1.075456,0.57755933,0.24783859,0.066319342,0.71197349,0.34263731,0.30677795,1.439364,1.3834934,0.28635139,1.7169284
0.11477852,0.18610972,0.1482445,0.43339459,0.15147369,0.14759682,0.27314085,0.22960334,0.14514431,0.11699537,0.53835134,0.36121545,0.62172418,0.8281461,0.46694352,1.6735046,1.0512833,0.18373428,0.27777332,0.71122867,0.87056834,1.1176787,0.54112517,0.26425818,0.068481056,0.7631311,0.36935862,0.28163017,1.5212657,1.4207858,0.30769665,1.7575928
0.12785322,0.17357327,0.14920355,0.39936316,0.15269497,0.14734382,0.24342021,0.25394384,0.14719866,0.13840467,0.49789343,0.32573551,0.56628372,0.81949428,0.46573365,1.5941939,1.0236298,0.17248997,0.26228678,0.67439196,0.8508741,1.150175,0.50371279,0.28130137,0.070545571,0.81825216,0.39746134,0.25809915,1.5972743,1.4540139,0.33087725,1.7812637
0.14333705,0.164252,0.15085206,0.36820427,0.15343915,0.14837447,0.21874663,0.28214451,0.15010244,0.16315733,0.45765003,0.2916791,0.51243868,0.81084195,0.47226012,1.4980159,0.98598538,0.16218866,0.24721773,0.63731098,0.82639058,1.169262,0.46610474,0.29869848,0.0726691,0.87661074,0.42605378,0.2366242,1.6638692,1.4815789,0.3546221,1.7880702
0.16158115,0.1574868,0.15337035,0.34014659,0.15370456,0.15046968,0.19869201,0.31488918,0.15383843,0.19164074,0.41797197,0.25962958,0.46119211,0.80287919,0.48634945,1.3885033,0.93978651,0.15299607,0.23263887,0.59942649,0.79702701,1.173909,0.4290787,0.31632171,0.075088803,0.93728077,0.45428538,0.21769047,1.7180488,1.5017268,0.37749651,1.777767
0.18229561,0.1536406,0.15706403,0.31588319,0.15360867,0.15344661,0.1833181,0.35171798,0.15856472,0.2239851,0.37917885,0.23008701,0.41355799,0.79620472,0.50768378,1.2703449,0.88774571,0.14502709,0.2187286,0.56064056,0.76266289,1.1634347,0.39337952,0.33416871,0.078023121,0.99889751,0.48134313,0.201755,1.7575049,1.5127546,0.39803906,1.7511522
0.20570695,0.15209659,0.16203657,0.29526839,0.15319243,0.15728712,0.17157981,0.39336235,0.16431975,0.26030935,0.34172153,0.20340919,0.37020985,0.79139662,0.53574477,1.1476685,0.83250849,0.13841842,0.20566217,0.52155411,0.72345251,1.1386073,0.35947242,0.35243305,0.081677558,1.0598182,0.50696123,0.18917679,1.7795546,1.5137377,0.41506267,1.7097413
0.23180987,0.15303449,0.16871793,0.27819032,0.15257813,0.16172219,0.16320234,0.439767,0.17115537,0.30091272,0.3060968,0.17985401,0.33159954,0.7888685,0.56992791,1.024264,0.77579764,0.13342314,0.19358764,0.48322576,0.6801116,1.1010913,0.32762835,0.3712726,0.086308064,1.118006,0.53105523,0.1801582,1.7811452,1.5044094,0.42797454,1.655223
0.26076384,0.15596271,0.17708694,0.26482838,0.15185802,0.16658883,0.15794428,0.49106503,0.17935305,0.34561558,0.27281876,0.15956667,0.29825304,0.78850159,0.60872599,0.90348795,0.71836314,0.13007129,0.18257056,0.44648707,0.63444348,1.054115,0.29798459,0.39076566,0.09202627,1.1709287,0.5535034,0.17471814,1.7608471,1.4843776,0.43654504,1.589156
0.29273647,0.16093052,0.18767555,0.25438765,0.15116986,0.17178873,0.15527326,0.54773546,0.18902921,0.39491397,0.24230737,0.1425103,0.27067176,0.79002149,0.65040823,0.78795855,0.66037334,0.12837164,0.17269373,0.41199219,0.5879124,0.9998355,0.27069114,0.4108432,0.098950113,1.2153047,0.57453303,0.17278063,1.7195331,1.4537024,0.44068436,1.5151401
0.32754793,0.16749863,0.20023956,0.24662363,0.15064735,0.17715499,0.15511996,0.60923384,0.20075753,0.4482538,0.21478545,0.12850041,0.24914605,0.79292179,0.69283851,0.67947581,0.60209271,0.12831172,0.16407739,0.38028079,0.54169652,0.94025736,0.24593535,0.43110543,0.10719996,1.2471936,0.5942215,0.17422017,1.6588001,1.4122049,0.44059748,1.4369236
0.36535465,0.17553986,0.21533773,0.24117984,0.1503685,0.1826651,0.15710788,0.67622574,0.21504161,0.50610954,0.19054063,0.11733657,0.2337259,0.79659674,0.73340284,0.57911217,0.54421947,0.12994033,0.15689467,0.35182837,0.49697843,0.87731912,0.22399325,0.45119173,0.11701052,1.263294,0.6125173,0.17889926,1.580207,1.3606603,0.4367032,1.3581681
0.40564627,0.18470331,0.23262593,0.23756683,0.15041503,0.1883982,0.16088132,0.74775515,0.23225879,0.56744283,0.16949676,0.10887575,0.22421714,0.80012363,0.76888087,0.48736442,0.48791244,0.13297056,0.15139954,0.32664338,0.45449174,0.81304312,0.2052474,0.47078223,0.12836041,1.2615819,0.62946965,0.186644,1.4857704,1.2997503,0.42979722,1.2826586
0.44873416,0.1948741,0.25252431,0.23576117,0.15080383,0.19443937,0.16649214,0.82360826,0.25363339,0.63242669,0.15185945,0.10295781,0.22017085,0.80233094,0.79493078,0.40471315,0.43467883,0.13724267,0.14774476,0.30439713,0.41477584,0.74914733,0.19006586,0.4898123,0.14131446,1.2425634,0.64514656,0.19725421,1.3794955,1.2312248,0.42118778,1.2130177
0.49423512,0.20588794,0.27464066,0.23562983,0.15159934,0.20098093,0.17378358,0.90299077,0.27922119,0.69985207,0.13729821,0.099357356,0.22102598,0.8016999,0.80829419,0.3311446,0.38595938,0.14262991,0.14595064,0.28473886,0.37826427,0.68723271,0.17882106,0.50856763,0.15591931,1.2085788,0.65956706,0.21049767,1.2656466,1.1576476,0.41248933,1.1509112
0.54282906,0.21772747,0.29914383,0.23714803,0.15277815,0.20832326,0.18284375,0.98482313,0.3098982,0.76937441,0.12595859,0.097849176,0.22620286,0.79593351,0.80737224,0.26679885,0.34261974,0.14900976,0.14612857,0.26722874,0.3453815,0.62859634,0.17135185,0.52765678,0.17214484,1.1618879,0.67276718,0.22594174,1.1484181,1.0819194,0.4054472,1.0973875
0.59434075,0.23041045,0.32570642,0.24074421,0.15436379,0.21661488,0.19405823,1.0683614,0.34640002,0.83998689,0.11732022,0.098225015,0.23516533,0.78322831,0.79283162,0.21167396,0.30506024,0.15615928,0.14844166,0.25144243,0.31602362,0.5738288,0.16762304,0.5480153,0.18966974,1.1060097,0.6848382,0.2429103,1.0312474,1.0066337,0.40172901,1.0535799
0.64957866,0.24402342,0.35443469,0.24642486,0.1562967,0.22621575,0.20725483,1.1525768,0.38886232,0.9110629,0.11149214,0.10031963,0.24739123,0.76303252,0.76673082,0.16562058,0.2732538,0.16394537,0.15305611,0.23696891,0.29025251,0.52336317,0.16750944,0.57026297,0.20819223,1.04385,0.69576921,0.26053044,0.91660587,0.93348911,0.40278243,1.0189138
0.70855626,0.25864571,0.38540266,0.2545522,0.15857213,0.23744919,0.22253222,1.2369881,0.43879375,0.98194263,0.10789455,0.10409782,0.26232138,0.73604112,0.73131024,0.12836699,0.24689968,0.17230541,0.16018484,0.22384952,0.26819943,0.47771007,0.17098014,0.59476039,0.22731152,0.9780015,0.70571863,0.2780419,0.80615551,0.86351111,0.40977222,0.99337964
0.77159704,0.27431304,0.41899763,0.26569022,0.16113659,0.25036004,0.23991835,1.3210213,0.49569973,1.0520001,0.10667738,0.109655,0.27934355,0.70392135,0.68925523,0.09957154,0.22574619,0.18121647,0.16990484,0.21232001,0.24967251,0.43699004,0.17740565,0.62186095,0.24641008,0.91094109,0.71526681,0.29499005,0.70123091,0.79742871,0.42358258,0.97676174
0.83833547,0.29105944,0.4556903,0.27989901,0.16399865,0.26535856,0.25909707,1.4040187,0.56005615,1.1202704,0.10731232,0.11717971,0.29786258,0.66893652,0.64307789,0.078858643,0.20964266,0.190611,0.18223502,0.20284332,0.23416623,0.40106359,0.18630438,0.65135253,0.26483957,0.84541186,0.72496228,0.31144823,0.60334681,0.73535725,0.44468347,0.96845036
0.90814086,0.30877211,0.49574637,0.29774818,0.16715275,0.28258999,0.28005907,1.4846242,0.63209015,1.1856051,0.11001936,0.12687745,0.31723844,0.63315731,0.59470171,0.065813713,0.19841205,0.20038867,0.19720315,0.19607217,0.22138486,0.3699675,0.19711598,0.68319773,0.28204259,0.78417004,0.73549267,0.32782229,0.51361963,0.67717476,0.4728769,0.96663853
0.98009787,0.32740447,0.53954968,0.31936425,0.17074477,0.3020114,0.30268991,1.5616672,0.71082582,1.2464837,0.11428443,0.1389189,0.33689185,0.59826037,0.54603856,0.060140598,0.19183122,0.21040524,0.21474101,0.1923372,0.21130115,0.3439644,0.2092152,0.71726283,0.29752214,0.72914993,0.74740835,0.34445274,0.43292526,0.62259387,0.50767527,0.96986276
1.0529177,0.34675718,0.58683452,0.34454155,0.17501428,0.324041,0.32688779,1.6327103,0.79657974,1.3022415,0.12025397,0.15338936,0.35647229,0.56565722,0.49903519,0.061350873,0.18958699,0.22040739,0.23467832,0.19209653,0.20384885,0.32279246,0.22179639,0.75308195,0.31124405,0.6817932,0.76096461,0.36145705,0.36165783,0.57108724,0.54814022,0.97627661
1.1250033,0.36675283,0.63775094,0.37362844,0.18043216,0.3485242,0.35289402,1.6970374,0.88795435,1.351399,0.12742026,0.1702719,0.37561203,0.53663103,0.45559982,0.068989269,0.19123784,0.23012213,0.25685567,0.19583977,0.19906389,0.30610039,0.23415112,0.79049871,0.32338599,0.64302983,0.77631699,0.37861165,0.29982421,0.52210495,0.5929702,0.98307263
1.194873,0.3871922,0.69149108,0.40609357,0.18744641,0.37533374,0.38078744,1.7534208,0.9841595,1.3943265,0.13578065,0.18948351,0.39388016,0.51199757,0.4169576,0.082652755,0.19622599,0.23930569,0.28091172,0.20415916,0.19706173,0.29358599,0.24562853,0.82968299,0.33410692,0.61340682,0.79351771,0.39546823,0.24720063,0.47539647,0.64050019,0.98707
1.2597647,0.40807802,0.74775996,0.44179378,0.19673088,0.40482711,0.41081594,1.8013921,1.084083,1.42957,0.14494611,0.21086991,0.41080346,0.49261972,0.38388687,0.10192639,0.20399329,0.24770254,0.30646032,0.21733073,0.19813989,0.28508971,0.25549577,0.87074691,0.34335656,0.5939137,0.81250561,0.41178927,0.20343656,0.4313552,0.6888232,0.98509919
1.3185778,0.42940109,0.80539358,0.48084171,0.20870428,0.43655982,0.44345079,1.8416168,1.1858214,1.4583127,0.1548817,0.23416701,0.42603586,0.47914028,0.3569272,0.12640886,0.21423109,0.25528443,0.33322859,0.23540879,0.20216242,0.27990055,0.2631028,0.91327535,0.35114719,0.58463377,0.8333008,0.42776957,0.16824078,0.39050962,0.73600398,0.97424397
1.3683946,0.4513007,0.8635754,0.52274543,0.22409994,0.47034441,0.47845641,1.8729416,1.2877539,1.4793492,0.16541064,0.25927117,0.43957012,0.47234251,0.33642817,0.1557704,0.22710734,0.26214622,0.36099627,0.25867743,0.20922799,0.27754712,0.26827844,0.95672371,0.3574906,0.58586563,0.8559587,0.4436277,0.14105483,0.35352391,0.78004045,0.95396282
1.4095657,0.47368989,0.92126706,0.56756874,0.24323822,0.50640374,0.51587541,1.8967498,1.3878219,1.4940479,0.17657693,0.28638247,0.45187265,0.47170539,0.3225933,0.18977258,0.24318612,0.26851521,0.38946656,0.28757202,0.21957305,0.27772695,0.27109968,1.0001197,0.36252768,0.59755168,0.88016432,0.45931033,0.12123626,0.3207692,0.81981243,0.92586272
1.4413905,0.49660645,0.97723754,0.61511742,0.26682413,0.54413803,0.55553574,1.9120982,1.4840773,1.5016432,0.18835779,0.31591401,0.46364753,0.47699765,0.31567014,0.22816982,0.26304397,0.27467467,0.41838324,0.32294597,0.23371018,0.28030476,0.27193341,1.0420719,0.36637202,0.61939532,0.90567148,0.47452733,0.10822976,0.29225884,0.85524124,0.89149069
1.4654943,0.51990229,1.0308672,0.66493816,0.29498742,0.58338762,0.59687595,1.9190802,1.5735596,1.5035341,0.20095436,0.34818083,0.47583461,0.48788845,0.31500661,0.27069673,0.28729571,0.28081907,0.44761707,0.36488879,0.25161577,0.28478598,0.27130855,1.0812463,0.36916483,0.65106065,0.93198759,0.48890843,0.10142919,0.26793747,0.88688388,0.85189042
1.482778,0.54360035,1.0810406,0.71686694,0.32828757,0.62413336,0.63950667,1.9175538,1.6554174,1.5000455,0.21447427,0.38329116,0.48968605,0.50409738,0.3200573,0.31692289,0.3166892,0.28702188,0.47732262,0.4135835,0.27349324,0.29085597,0.27010209,1.1163279,0.3710246,0.69123788,0.95789245,0.50233219,0.10024647,0.24761983,0.91527369,0.80842083
1.4946793,0.5675598,1.1273161,0.77022738,0.36664562,0.66601537,0.68270074,1.9070785,1.7277874,1.4922213,0.22910128,0.42114091,0.50675385,0.52450212,0.33020526,0.36609891,0.35207484,0.29337942,0.50793597,0.46917209,0.29958792,0.29823055,0.26916283,1.1469338,0.37231743,0.73831306,0.98193925,0.51500098,0.10417357,0.23129526,0.94050201,0.76209711
1.5022179,0.5916392,1.1684303,0.82459573,0.41043772,0.70907498,0.72590597,1.8893742,1.7904683,1.4805308,0.24488191,0.46135802,0.52858174,0.54787125,0.34479516,0.41736767,0.39423473,0.30001014,0.5397792,0.53181941,0.33008148,0.30676846,0.2693845,1.1730122,0.37352387,0.79055285,1.0021123,0.52753317,0.11275891,0.21843084,0.96208196,0.71371082
1.5056568,0.61549796,1.2037953,0.87965146,0.45941905,0.75343162,0.76869942,1.8644602,1.8437852,1.4657409,0.26187772,0.50335305,0.55662318,0.57270454,0.36318426,0.46984537,0.44369131,0.30703833,0.57286963,0.60165982,0.36458937,0.316487,0.27185673,1.1944274,0.37493153,0.84568328,1.0165745,0.54075832,0.12563715,0.2087035,0.97943583,0.66400266
